packet_id,device_time,host_time,ecg
0,599617366123.133,1780930533372.072,5345
0,599617366123.133,1780930533372.077,5465
0,599617366123.133,1780930533372.08,5615
0,599617366123.133,1780930533372.083,5809
0,599617366123.133,1780930533372.0852,5938
0,599617366123.133,1780930533372.088,6064
0,599617366123.133,1780930533372.091,6232
0,599617366123.133,1780930533372.093,6350
0,599617366123.133,1780930533372.096,6416
0,599617366123.133,1780930533372.098,6516
0,599617366123.133,1780930533372.101,6630
0,599617366123.133,1780930533372.104,6721
0,599617366123.133,1780930533372.106,6789
0,599617366123.133,1780930533372.109,6903
0,599617366123.133,1780930533372.111,7069
0,599617366123.133,1780930533372.114,7105
0,599617366123.133,1780930533372.1162,7044
0,599617366123.133,1780930533372.119,7105
0,599617366123.133,1780930533372.122,7187
0,599617366123.133,1780930533372.124,7199
0,599617366123.133,1780930533372.127,7258
0,599617366123.133,1780930533372.129,7328
0,599617366123.133,1780930533372.132,7349
0,599617366123.133,1780930533372.134,7374
0,599617366123.133,1780930533372.137,7387
0,599617366123.133,1780930533372.14,7383
0,599617366123.133,1780930533372.142,7419
0,599617366123.133,1780930533372.145,7471
0,599617366123.133,1780930533372.147,7492
0,599617366123.133,1780930533372.15,7503
0,599617366123.133,1780930533372.152,7517
0,599617366123.133,1780930533372.155,7537
0,599617366123.133,1780930533372.157,7551
0,599617366123.133,1780930533372.16,7544
0,599617366123.133,1780930533372.163,7562
0,599617366123.133,1780930533372.165,7528
0,599617366123.133,1780930533372.168,7385
0,599617366123.133,1780930533372.17,7337
0,599617366123.133,1780930533372.173,7410
0,599617366123.133,1780930533372.176,7392
0,599617366123.133,1780930533372.178,7274
0,599617366123.133,1780930533372.181,7212
0,599617366123.133,1780930533372.183,7205
0,599617366123.133,1780930533372.2,7180
0,599617366123.133,1780930533372.212,7169
0,599617366123.133,1780930533372.219,7169
0,599617366123.133,1780930533372.222,7133
0,599617366123.133,1780930533372.225,7083
0,599617366123.133,1780930533372.227,7046
0,599617366123.133,1780930533372.23,7005
0,599617366123.133,1780930533372.233,6992
0,599617366123.133,1780930533372.235,7044
0,599617366123.133,1780930533372.238,7123
0,599617366123.133,1780930533372.241,7255
0,599617366123.133,1780930533372.244,7526
0,599617366123.133,1780930533372.246,7449
0,599617366123.133,1780930533372.2488,6559
0,599617366123.133,1780930533372.252,5806
0,599617366123.133,1780930533372.254,6041
0,599617366123.133,1780930533372.257,6462
0,599617366123.133,1780930533372.26,6452
0,599617366123.133,1780930533372.262,6407
0,599617366123.133,1780930533372.2651,6457
0,599617366123.133,1780930533372.268,6414
0,599617366123.133,1780930533372.27,6316
0,599617366123.133,1780930533372.273,6259
0,599617366123.133,1780930533372.2761,6225
0,599617366123.133,1780930533372.2788,6182
0,599617366123.133,1780930533372.281,6145
0,599617366123.133,1780930533372.284,6111
0,599617366123.133,1780930533372.2861,6091
0,599617366123.133,1780930533372.289,6066
0,599617366123.133,1780930533372.292,5963
1,599617366684.6948,1780930533999.406,5877
1,599617366684.6948,1780930533999.416,5904
1,599617366684.6948,1780930533999.419,5922
1,599617366684.6948,1780930533999.422,5800
1,599617366684.6948,1780930533999.425,5659
1,599617366684.6948,1780930533999.427,5643
1,599617366684.6948,1780930533999.43,5647
1,599617366684.6948,1780930533999.433,5661
1,599617366684.6948,1780930533999.435,5711
1,599617366684.6948,1780930533999.437,5586
1,599617366684.6948,1780930533999.439,5386
1,599617366684.6948,1780930533999.441,5388
1,599617366684.6948,1780930533999.443,5424
1,599617366684.6948,1780930533999.445,5374
1,599617366684.6948,1780930533999.447,5333
1,599617366684.6948,1780930533999.449,5263
1,599617366684.6948,1780930533999.451,5165
1,599617366684.6948,1780930533999.4531,5085
1,599617366684.6948,1780930533999.455,4992
1,599617366684.6948,1780930533999.4568,4888
1,599617366684.6948,1780930533999.46,4772
1,599617366684.6948,1780930533999.462,4642
1,599617366684.6948,1780930533999.464,4558
1,599617366684.6948,1780930533999.4658,4451
1,599617366684.6948,1780930533999.468,4296
1,599617366684.6948,1780930533999.47,4267
1,599617366684.6948,1780930533999.472,4248
1,599617366684.6948,1780930533999.474,4087
1,599617366684.6948,1780930533999.476,4003
1,599617366684.6948,1780930533999.478,4041
1,599617366684.6948,1780930533999.48,4003
1,599617366684.6948,1780930533999.482,3912
1,599617366684.6948,1780930533999.4841,3869
1,599617366684.6948,1780930533999.486,3821
1,599617366684.6948,1780930533999.488,3773
1,599617366684.6948,1780930533999.49,3753
1,599617366684.6948,1780930533999.493,3732
1,599617366684.6948,1780930533999.495,3705
1,599617366684.6948,1780930533999.4968,3662
1,599617366684.6948,1780930533999.499,3596
1,599617366684.6948,1780930533999.501,3555
1,599617366684.6948,1780930533999.503,3536
1,599617366684.6948,1780930533999.5051,3521
1,599617366684.6948,1780930533999.5068,3507
1,599617366684.6948,1780930533999.509,3448
1,599617366684.6948,1780930533999.511,3336
1,599617366684.6948,1780930533999.513,3289
1,599617366684.6948,1780930533999.5151,3275
1,599617366684.6948,1780930533999.5168,3252
1,599617366684.6948,1780930533999.519,3227
1,599617366684.6948,1780930533999.521,3148
1,599617366684.6948,1780930533999.523,3059
1,599617366684.6948,1780930533999.53,3045
1,599617366684.6948,1780930533999.532,3036
1,599617366684.6948,1780930533999.534,3002
1,599617366684.6948,1780930533999.5361,2975
1,599617366684.6948,1780930533999.5388,2929
1,599617366684.6948,1780930533999.541,2875
1,599617366684.6948,1780930533999.543,2850
1,599617366684.6948,1780930533999.5452,2831
1,599617366684.6948,1780930533999.547,2802
1,599617366684.6948,1780930533999.5488,2784
1,599617366684.6948,1780930533999.551,2754
1,599617366684.6948,1780930533999.553,2693
1,599617366684.6948,1780930533999.5552,2611
1,599617366684.6948,1780930533999.5571,2533
1,599617366684.6948,1780930533999.5588,2515
1,599617366684.6948,1780930533999.561,2524
1,599617366684.6948,1780930533999.563,2488
1,599617366684.6948,1780930533999.565,2461
1,599617366684.6948,1780930533999.5671,2467
1,599617366684.6948,1780930533999.5688,2451
1,599617366684.6948,1780930533999.572,2399
2,599617367246.2412,1780930534495.032,2324
2,599617367246.2412,1780930534495.064,2249
2,599617367246.2412,1780930534495.0781,2210
2,599617367246.2412,1780930534495.096,2188
2,599617367246.2412,1780930534495.11,2151
2,599617367246.2412,1780930534495.1228,2122
2,599617367246.2412,1780930534495.136,2094
2,599617367246.2412,1780930534495.1501,2060
2,599617367246.2412,1780930534495.163,2035
2,599617367246.2412,1780930534495.176,2024
2,599617367246.2412,1780930534495.189,2022
2,599617367246.2412,1780930534495.2012,2006
2,599617367246.2412,1780930534495.2139,1953
2,599617367246.2412,1780930534495.227,1901
2,599617367246.2412,1780930534495.24,1894
2,599617367246.2412,1780930534495.2532,1896
2,599617367246.2412,1780930534495.2659,1894
2,599617367246.2412,1780930534495.2778,1890
2,599617367246.2412,1780930534495.291,1919
2,599617367246.2412,1780930534495.3042,2126
2,599617367246.2412,1780930534495.316,2481
2,599617367246.2412,1780930534495.3289,2463
2,599617367246.2412,1780930534495.342,1696
2,599617367246.2412,1780930534495.355,900
2,599617367246.2412,1780930534495.368,955
2,599617367246.2412,1780930534495.38,1435
2,599617367246.2412,1780930534495.412,1592
2,599617367246.2412,1780930534495.428,1562
2,599617367246.2412,1780930534495.441,1599
2,599617367246.2412,1780930534495.453,1603
2,599617367246.2412,1780930534495.466,1564
2,599617367246.2412,1780930534495.479,1558
2,599617367246.2412,1780930534495.491,1526
2,599617367246.2412,1780930534495.504,1462
2,599617367246.2412,1780930534495.517,1455
2,599617367246.2412,1780930534495.5298,1469
2,599617367246.2412,1780930534495.542,1453
2,599617367246.2412,1780930534495.555,1444
2,599617367246.2412,1780930534495.568,1444
2,599617367246.2412,1780930534495.59,1439
2,599617367246.2412,1780930534495.603,1442
2,599617367246.2412,1780930534495.616,1437
2,599617367246.2412,1780930534495.6292,1435
2,599617367246.2412,1780930534495.82,1432
2,599617367246.2412,1780930534495.838,1426
2,599617367246.2412,1780930534496.0142,1435
2,599617367246.2412,1780930534496.109,1442
2,599617367246.2412,1780930534496.143,1403
2,599617367246.2412,1780930534496.16,1378
2,599617367246.2412,1780930534496.174,1405
2,599617367246.2412,1780930534496.187,1430
2,599617367246.2412,1780930534496.2002,1437
2,599617367246.2412,1780930534496.213,1453
2,599617367246.2412,1780930534496.226,1446
2,599617367246.2412,1780930534496.928,1407
2,599617367246.2412,1780930534496.9512,1376
2,599617367246.2412,1780930534496.9612,1339
2,599617367246.2412,1780930534496.97,1282
2,599617367246.2412,1780930534496.98,1207
2,599617367246.2412,1780930534496.989,1123
2,599617367246.2412,1780930534496.999,1048
2,599617367246.2412,1780930534497.008,987
2,599617367246.2412,1780930534497.018,937
2,599617367246.2412,1780930534497.0269,907
2,599617367246.2412,1780930534497.036,884
2,599617367246.2412,1780930534497.045,859
2,599617367246.2412,1780930534497.051,848
2,599617367246.2412,1780930534497.057,837
2,599617367246.2412,1780930534497.0642,825
2,599617367246.2412,1780930534497.071,825
2,599617367246.2412,1780930534497.077,807
2,599617367246.2412,1780930534497.083,777
2,599617367246.2412,1780930534497.0889,771
3,599617367807.8081,1780930535037.434,746
3,599617367807.8081,1780930535037.4739,705
3,599617367807.8081,1780930535037.489,711
3,599617367807.8081,1780930535037.503,727
3,599617367807.8081,1780930535037.517,723
3,599617367807.8081,1780930535037.53,727
3,599617367807.8081,1780930535037.544,734
3,599617367807.8081,1780930535037.559,730
3,599617367807.8081,1780930535037.573,714
3,599617367807.8081,1780930535037.594,671
3,599617367807.8081,1780930535037.607,636
3,599617367807.8081,1780930535037.62,648
3,599617367807.8081,1780930535037.6338,641
3,599617367807.8081,1780930535037.647,614
3,599617367807.8081,1780930535037.666,618
3,599617367807.8081,1780930535037.679,627
3,599617367807.8081,1780930535037.693,625
3,599617367807.8081,1780930535037.707,632
3,599617367807.8081,1780930535037.72,630
3,599617367807.8081,1780930535037.7341,616
3,599617367807.8081,1780930535037.7468,586
3,599617367807.8081,1780930535037.761,550
3,599617367807.8081,1780930535037.773,548
3,599617367807.8081,1780930535037.786,570
3,599617367807.8081,1780930535037.8,570
3,599617367807.8081,1780930535037.813,564
3,599617367807.8081,1780930535037.832,550
3,599617367807.8081,1780930535037.845,525
3,599617367807.8081,1780930535037.861,525
3,599617367807.8081,1780930535037.874,543
3,599617367807.8081,1780930535037.971,541
3,599617367807.8081,1780930535037.999,534
3,599617367807.8081,1780930535038.015,539
3,599617367807.8081,1780930535038.03,552
3,599617367807.8081,1780930535038.043,573
3,599617367807.8081,1780930535038.0571,600
3,599617367807.8081,1780930535038.07,623
3,599617367807.8081,1780930535038.0818,639
3,599617367807.8081,1780930535038.096,623
3,599617367807.8081,1780930535038.1091,580
3,599617367807.8081,1780930535038.1218,552
3,599617367807.8081,1780930535038.135,514
3,599617367807.8081,1780930535038.148,443
3,599617367807.8081,1780930535038.1611,407
3,599617367807.8081,1780930535038.1738,395
3,599617367807.8081,1780930535038.187,373
3,599617367807.8081,1780930535038.2,379
3,599617367807.8081,1780930535038.2131,404
3,599617367807.8081,1780930535038.227,404
3,599617367807.8081,1780930535038.24,386
3,599617367807.8081,1780930535038.255,361
3,599617367807.8081,1780930535038.36,357
3,599617367807.8081,1780930535038.382,379
3,599617367807.8081,1780930535038.397,398
3,599617367807.8081,1780930535038.41,400
3,599617367807.8081,1780930535038.424,402
3,599617367807.8081,1780930535038.438,411
3,599617367807.8081,1780930535038.4531,441
3,599617367807.8081,1780930535038.466,557
3,599617367807.8081,1780930535038.48,841
3,599617367807.8081,1780930535038.493,1185
3,599617367807.8081,1780930535038.507,1073
3,599617367807.8081,1780930535038.521,247
3,599617367807.8081,1780930535038.5352,-418
3,599617367807.8081,1780930535038.548,-184
3,599617367807.8081,1780930535038.562,293
3,599617367807.8081,1780930535038.574,368
3,599617367807.8081,1780930535038.5881,318
3,599617367807.8081,1780930535038.6008,354
3,599617367807.8081,1780930535038.614,373
3,599617367807.8081,1780930535038.627,375
3,599617367807.8081,1780930535038.6401,398
3,599617367807.8081,1780930535038.654,407
4,599617368369.3749,1780930535621.4531,400
4,599617368369.3749,1780930535621.4958,411
4,599617368369.3749,1780930535621.512,425
4,599617368369.3749,1780930535621.529,416
4,599617368369.3749,1780930535621.543,402
4,599617368369.3749,1780930535621.557,395
4,599617368369.3749,1780930535621.57,370
4,599617368369.3749,1780930535621.604,350
4,599617368369.3749,1780930535621.6172,348
4,599617368369.3749,1780930535621.63,338
4,599617368369.3749,1780930535621.642,350
4,599617368369.3749,1780930535621.656,375
4,599617368369.3749,1780930535621.669,388
4,599617368369.3749,1780930535621.6829,413
4,599617368369.3749,1780930535621.696,457
4,599617368369.3749,1780930535621.7092,495
4,599617368369.3749,1780930535621.722,523
4,599617368369.3749,1780930535621.744,534
4,599617368369.3749,1780930535621.758,529
4,599617368369.3749,1780930535621.781,543
4,599617368369.3749,1780930535621.795,573
4,599617368369.3749,1780930535621.808,584
4,599617368369.3749,1780930535621.821,570
4,599617368369.3749,1780930535621.833,534
4,599617368369.3749,1780930535621.846,475
4,599617368369.3749,1780930535621.8591,418
4,599617368369.3749,1780930535621.871,370
4,599617368369.3749,1780930535621.884,320
4,599617368369.3749,1780930535621.897,254
4,599617368369.3749,1780930535621.9102,163
4,599617368369.3749,1780930535621.9229,104
4,599617368369.3749,1780930535621.936,113
4,599617368369.3749,1780930535621.949,127
4,599617368369.3749,1780930535621.9622,125
4,599617368369.3749,1780930535621.9749,127
4,599617368369.3749,1780930535621.987,118
4,599617368369.3749,1780930535621.999,111
4,599617368369.3749,1780930535622.012,134
4,599617368369.3749,1780930535622.025,156
4,599617368369.3749,1780930535622.0369,161
4,599617368369.3749,1780930535622.05,152
4,599617368369.3749,1780930535622.062,125
4,599617368369.3749,1780930535622.0752,113
4,599617368369.3749,1780930535622.087,138
4,599617368369.3749,1780930535622.1,166
4,599617368369.3749,1780930535622.113,179
4,599617368369.3749,1780930535622.127,188
4,599617368369.3749,1780930535622.139,188
4,599617368369.3749,1780930535622.152,181
4,599617368369.3749,1780930535622.175,166
4,599617368369.3749,1780930535622.188,145
4,599617368369.3749,1780930535622.248,156
4,599617368369.3749,1780930535622.264,172
4,599617368369.3749,1780930535622.278,163
4,599617368369.3749,1780930535622.292,168
4,599617368369.3749,1780930535622.305,193
4,599617368369.3749,1780930535622.318,206
4,599617368369.3749,1780930535622.3308,216
4,599617368369.3749,1780930535622.344,218
4,599617368369.3749,1780930535622.356,211
4,599617368369.3749,1780930535622.3691,216
4,599617368369.3749,1780930535622.387,234
4,599617368369.3749,1780930535622.4001,241
4,599617368369.3749,1780930535622.4128,236
4,599617368369.3749,1780930535622.425,213
4,599617368369.3749,1780930535622.438,181
4,599617368369.3749,1780930535622.4512,177
4,599617368369.3749,1780930535622.463,177
4,599617368369.3749,1780930535622.476,170
4,599617368369.3749,1780930535622.582,166
4,599617368369.3749,1780930535622.596,141
4,599617368369.3749,1780930535622.609,120
4,599617368369.3749,1780930535622.622,138
5,599617368930.9111,1780930536206.402,163
5,599617368930.9111,1780930536206.415,172
5,599617368930.9111,1780930536206.418,188
5,599617368930.9111,1780930536206.421,206
5,599617368930.9111,1780930536206.423,218
5,599617368930.9111,1780930536206.426,243
5,599617368930.9111,1780930536206.429,282
5,599617368930.9111,1780930536206.431,309
5,599617368930.9111,1780930536206.434,284
5,599617368930.9111,1780930536206.436,211
5,599617368930.9111,1780930536206.439,170
5,599617368930.9111,1780930536206.4421,184
5,599617368930.9111,1780930536206.448,186
5,599617368930.9111,1780930536206.451,163
5,599617368930.9111,1780930536206.4531,131
5,599617368930.9111,1780930536206.456,93
5,599617368930.9111,1780930536206.458,79
5,599617368930.9111,1780930536206.461,77
5,599617368930.9111,1780930536206.4631,56
5,599617368930.9111,1780930536206.466,54
5,599617368930.9111,1780930536206.468,77
5,599617368930.9111,1780930536206.471,84
5,599617368930.9111,1780930536206.4731,86
5,599617368930.9111,1780930536206.476,109
5,599617368930.9111,1780930536206.479,134
5,599617368930.9111,1780930536206.481,145
5,599617368930.9111,1780930536206.4841,152
5,599617368930.9111,1780930536206.487,177
5,599617368930.9111,1780930536206.49,293
5,599617368930.9111,1780930536206.493,580
5,599617368930.9111,1780930536206.495,898
5,599617368930.9111,1780930536206.4978,741
5,599617368930.9111,1780930536206.5,-38
5,599617368930.9111,1780930536206.503,-600
5,599617368930.9111,1780930536206.5051,-318
5,599617368930.9111,1780930536206.5078,143
5,599617368930.9111,1780930536206.52,213
5,599617368930.9111,1780930536206.522,179
5,599617368930.9111,1780930536206.5251,195
5,599617368930.9111,1780930536206.527,170
5,599617368930.9111,1780930536206.53,159
5,599617368930.9111,1780930536206.532,193
5,599617368930.9111,1780930536206.5352,213
5,599617368930.9111,1780930536206.537,218
5,599617368930.9111,1780930536206.54,229
5,599617368930.9111,1780930536206.542,236
5,599617368930.9111,1780930536206.5452,243
5,599617368930.9111,1780930536206.558,257
5,599617368930.9111,1780930536206.5598,275
5,599617368930.9111,1780930536206.563,277
5,599617368930.9111,1780930536206.565,254
5,599617368930.9111,1780930536206.568,243
5,599617368930.9111,1780930536206.5698,263
5,599617368930.9111,1780930536206.573,286
5,599617368930.9111,1780930536206.5762,309
5,599617368930.9111,1780930536206.5781,334
5,599617368930.9111,1780930536206.581,354
5,599617368930.9111,1780930536206.583,373
5,599617368930.9111,1780930536206.586,384
5,599617368930.9111,1780930536206.5881,398
5,599617368930.9111,1780930536206.5908,427
5,599617368930.9111,1780930536206.595,438
5,599617368930.9111,1780930536206.5981,418
5,599617368930.9111,1780930536206.5999,418
5,599617368930.9111,1780930536206.603,434
5,599617368930.9111,1780930536206.605,420
5,599617368930.9111,1780930536206.6082,393
5,599617368930.9111,1780930536206.6099,348
5,599617368930.9111,1780930536206.613,282
5,599617368930.9111,1780930536206.616,216
5,599617368930.9111,1780930536206.6182,163
5,599617368930.9111,1780930536206.6208,122
5,599617368930.9111,1780930536206.623,95
6,599617369492.4729,1780930536744.7258,75
6,599617369492.4729,1780930536744.769,61
6,599617369492.4729,1780930536744.773,59
6,599617369492.4729,1780930536744.7769,59
6,599617369492.4729,1780930536744.781,61
6,599617369492.4729,1780930536744.7852,68
6,599617369492.4729,1780930536744.7888,47
6,599617369492.4729,1780930536744.792,20
6,599617369492.4729,1780930536744.7961,31
6,599617369492.4729,1780930536744.8,50
6,599617369492.4729,1780930536744.803,52
6,599617369492.4729,1780930536744.807,45
6,599617369492.4729,1780930536744.811,18
6,599617369492.4729,1780930536744.8152,2
6,599617369492.4729,1780930536744.8188,20
6,599617369492.4729,1780930536744.822,34
6,599617369492.4729,1780930536744.8262,31
6,599617369492.4729,1780930536744.8298,13
6,599617369492.4729,1780930536744.834,-18
6,599617369492.4729,1780930536744.8398,-20
6,599617369492.4729,1780930536744.844,4
6,599617369492.4729,1780930536744.8472,13
6,599617369492.4729,1780930536744.851,20
6,599617369492.4729,1780930536744.855,36
6,599617369492.4729,1780930536744.859,40
6,599617369492.4729,1780930536744.863,50
6,599617369492.4729,1780930536744.8672,52
6,599617369492.4729,1780930536744.8699,20
6,599617369492.4729,1780930536744.874,2
6,599617369492.4729,1780930536744.8782,22
6,599617369492.4729,1780930536744.8872,34
6,599617369492.4729,1780930536744.8909,38
6,599617369492.4729,1780930536744.894,54
6,599617369492.4729,1780930536744.8982,59
6,599617369492.4729,1780930536744.9019,61
6,599617369492.4729,1780930536744.905,63
6,599617369492.4729,1780930536744.909,68
6,599617369492.4729,1780930536744.913,79
6,599617369492.4729,1780930536744.916,95
6,599617369492.4729,1780930536744.92,100
6,599617369492.4729,1780930536744.923,106
6,599617369492.4729,1780930536744.927,116
6,599617369492.4729,1780930536744.931,122
6,599617369492.4729,1780930536744.934,134
6,599617369492.4729,1780930536744.938,143
6,599617369492.4729,1780930536744.941,147
6,599617369492.4729,1780930536744.945,147
6,599617369492.4729,1780930536744.948,129
6,599617369492.4729,1780930536744.952,113
6,599617369492.4729,1780930536744.955,129
6,599617369492.4729,1780930536744.9592,150
6,599617369492.4729,1780930536744.962,138
6,599617369492.4729,1780930536744.966,95
6,599617369492.4729,1780930536744.969,50
6,599617369492.4729,1780930536745.003,40
6,599617369492.4729,1780930536745.041,50
6,599617369492.4729,1780930536745.047,43
6,599617369492.4729,1780930536745.051,25
6,599617369492.4729,1780930536745.054,13
6,599617369492.4729,1780930536745.0571,15
6,599617369492.4729,1780930536745.059,29
6,599617369492.4729,1780930536745.099,47
6,599617369492.4729,1780930536745.1028,61
6,599617369492.4729,1780930536745.107,65
6,599617369492.4729,1780930536745.111,54
6,599617369492.4729,1780930536745.145,34
6,599617369492.4729,1780930536745.1638,38
6,599617369492.4729,1780930536745.167,45
6,599617369492.4729,1780930536745.1702,15
6,599617369492.4729,1780930536745.173,2
6,599617369492.4729,1780930536745.176,36
6,599617369492.4729,1780930536745.178,122
6,599617369492.4729,1780930536745.1812,354
7,599617370054.0345,1780930537330.7942,727
7,599617370054.0345,1780930537330.8252,796
7,599617370054.0345,1780930537330.8289,141
7,599617370054.0345,1780930537330.832,-643
7,599617370054.0345,1780930537330.8352,-609
7,599617370054.0345,1780930537330.838,-81
7,599617370054.0345,1780930537330.841,122
7,599617370054.0345,1780930537330.844,90
7,599617370054.0345,1780930537330.8462,100
7,599617370054.0345,1780930537330.8489,75
7,599617370054.0345,1780930537330.853,36
7,599617370054.0345,1780930537330.8562,70
7,599617370054.0345,1780930537330.858,109
7,599617370054.0345,1780930537330.861,102
7,599617370054.0345,1780930537330.863,79
7,599617370054.0345,1780930537330.8662,61
7,599617370054.0345,1780930537330.868,68
7,599617370054.0345,1780930537330.871,97
7,599617370054.0345,1780930537330.874,122
7,599617370054.0345,1780930537330.8762,138
7,599617370054.0345,1780930537330.879,136
7,599617370054.0345,1780930537330.881,116
7,599617370054.0345,1780930537330.884,116
7,599617370054.0345,1780930537330.886,152
7,599617370054.0345,1780930537330.889,186
7,599617370054.0345,1780930537330.914,211
7,599617370054.0345,1780930537330.921,234
7,599617370054.0345,1780930537330.924,257
7,599617370054.0345,1780930537330.927,297
7,599617370054.0345,1780930537330.93,348
7,599617370054.0345,1780930537330.933,388
7,599617370054.0345,1780930537330.936,413
7,599617370054.0345,1780930537330.94,427
7,599617370054.0345,1780930537330.942,432
7,599617370054.0345,1780930537330.945,429
7,599617370054.0345,1780930537330.948,398
7,599617370054.0345,1780930537330.95,336
7,599617370054.0345,1780930537330.953,279
7,599617370054.0345,1780930537330.955,202
7,599617370054.0345,1780930537330.958,93
7,599617370054.0345,1780930537330.961,15
7,599617370054.0345,1780930537330.963,-27
7,599617370054.0345,1780930537330.971,-59
7,599617370054.0345,1780930537330.973,-77
7,599617370054.0345,1780930537330.976,-95
7,599617370054.0345,1780930537330.978,-102
7,599617370054.0345,1780930537330.981,-86
7,599617370054.0345,1780930537330.9841,-65
7,599617370054.0345,1780930537330.986,-52
7,599617370054.0345,1780930537330.9888,-43
7,599617370054.0345,1780930537330.991,-38
7,599617370054.0345,1780930537330.994,-27
7,599617370054.0345,1780930537330.996,-4
7,599617370054.0345,1780930537330.9988,18
7,599617370054.0345,1780930537331.001,29
7,599617370054.0345,1780930537331.004,34
7,599617370054.0345,1780930537331.007,6
7,599617370054.0345,1780930537331.0088,-27
7,599617370054.0345,1780930537331.012,-15
7,599617370054.0345,1780930537331.014,18
7,599617370054.0345,1780930537331.017,29
7,599617370054.0345,1780930537331.019,18
7,599617370054.0345,1780930537331.022,0
7,599617370054.0345,1780930537331.025,6
7,599617370054.0345,1780930537331.028,40
7,599617370054.0345,1780930537331.0298,61
7,599617370054.0345,1780930537331.033,68
7,599617370054.0345,1780930537331.035,75
7,599617370054.0345,1780930537331.038,72
7,599617370054.0345,1780930537331.0398,77
7,599617370054.0345,1780930537331.043,100
7,599617370054.0345,1780930537331.0461,109
7,599617370054.0345,1780930537331.048,97
