packet_id,device_time,host_time,ecg,sample_idx,sample_time,time_ms
0,599620165340.2651,1780933332560.8252,4542,0,599620164786.419,0.0
0,599620165340.2651,1780933332560.876,4876,1,599620164794.1113,7.6923828125
0,599620165340.2651,1780933332560.894,5099,2,599620164801.8036,15.3846435546875
0,599620165340.2651,1780933332560.91,5267,3,599620164809.4958,23.076904296875
0,599620165340.2651,1780933332560.925,5511,4,599620164817.1882,30.769287109375
0,599620165340.2651,1780933332560.939,5743,5,599620164824.8805,38.4615478515625
0,599620165340.2651,1780933332560.952,5925,6,599620164832.5729,46.1539306640625
0,599620165340.2651,1780933332560.965,6123,7,599620164840.2651,53.84619140625
0,599620165340.2651,1780933332560.979,6289,8,599620164847.9574,61.5384521484375
0,599620165340.2651,1780933332560.992,6382,9,599620164855.6498,69.2308349609375
0,599620165340.2651,1780933332561.006,6489,10,599620164863.342,76.923095703125
0,599620165340.2651,1780933332561.019,6580,11,599620164871.0344,84.615478515625
0,599620165340.2651,1780933332561.032,6614,12,599620164878.7267,92.3077392578125
0,599620165340.2651,1780933332561.045,6662,13,599620164886.419,100.0
0,599620165340.2651,1780933332561.058,6694,14,599620164894.1113,107.6923828125
0,599620165340.2651,1780933332561.0708,6666,15,599620164901.8036,115.3846435546875
0,599620165340.2651,1780933332561.084,6687,16,599620164909.4958,123.076904296875
0,599620165340.2651,1780933332561.0981,6707,17,599620164917.1882,130.769287109375
0,599620165340.2651,1780933332561.111,6671,18,599620164924.8805,138.4615478515625
0,599620165340.2651,1780933332561.124,6744,19,599620164932.5729,146.1539306640625
0,599620165340.2651,1780933332561.145,6928,20,599620164940.2651,153.84619140625
0,599620165340.2651,1780933332561.158,7112,21,599620164947.9574,161.5384521484375
0,599620165340.2651,1780933332561.2139,7194,22,599620164955.6498,169.2308349609375
0,599620165340.2651,1780933332561.237,7144,23,599620164963.342,176.923095703125
0,599620165340.2651,1780933332561.2522,7151,24,599620164971.0344,184.615478515625
0,599620165340.2651,1780933332561.268,7212,25,599620164978.7267,192.3077392578125
0,599620165340.2651,1780933332561.2842,7242,26,599620164986.419,200.0
0,599620165340.2651,1780933332561.299,7328,27,599620164994.1113,207.6923828125
0,599620165340.2651,1780933332561.312,7444,28,599620165001.8036,215.3846435546875
0,599620165340.2651,1780933332561.3252,7487,29,599620165009.4958,223.076904296875
0,599620165340.2651,1780933332561.3389,7522,30,599620165017.1882,230.769287109375
0,599620165340.2651,1780933332561.351,7592,31,599620165024.8805,238.4615478515625
0,599620165340.2651,1780933332561.364,7656,32,599620165032.5729,246.1539306640625
0,599620165340.2651,1780933332561.394,7697,33,599620165040.2651,253.84619140625
0,599620165340.2651,1780933332561.407,7706,34,599620165047.9574,261.5384521484375
0,599620165340.2651,1780933332561.42,7694,35,599620165055.6498,269.2308349609375
0,599620165340.2651,1780933332561.433,7713,36,599620165063.342,276.923095703125
0,599620165340.2651,1780933332561.446,7744,37,599620165071.0344,284.615478515625
0,599620165340.2651,1780933332561.459,7804,38,599620165078.7267,292.3077392578125
0,599620165340.2651,1780933332561.472,7872,39,599620165086.419,300.0
0,599620165340.2651,1780933332561.485,7799,40,599620165094.1113,307.6923828125
0,599620165340.2651,1780933332561.499,7733,41,599620165101.8036,315.3846435546875
0,599620165340.2651,1780933332561.512,7840,42,599620165109.4958,323.076904296875
0,599620165340.2651,1780933332561.5251,7810,43,599620165117.1882,330.769287109375
0,599620165340.2651,1780933332561.538,7658,44,599620165124.8805,338.4615478515625
0,599620165340.2651,1780933332561.5671,7722,45,599620165132.5729,346.1539306640625
0,599620165340.2651,1780933332561.5808,7719,46,599620165140.2651,353.84619140625
0,599620165340.2651,1780933332561.594,7512,47,599620165147.9574,361.5384521484375
0,599620165340.2651,1780933332561.607,7465,48,599620165155.6498,369.2308349609375
0,599620165340.2651,1780933332561.62,7503,49,599620165163.342,376.923095703125
0,599620165340.2651,1780933332561.633,7481,50,599620165171.0344,384.615478515625
0,599620165340.2651,1780933332561.646,7462,51,599620165178.7267,392.3077392578125
0,599620165340.2651,1780933332561.6592,7360,52,599620165186.419,400.0
0,599620165340.2651,1780933332561.6729,7230,53,599620165194.1113,407.6923828125
0,599620165340.2651,1780933332561.686,7251,54,599620165201.8036,415.3846435546875
0,599620165340.2651,1780933332561.699,7315,55,599620165209.4958,423.076904296875
0,599620165340.2651,1780933332561.712,7317,56,599620165217.1882,430.769287109375
0,599620165340.2651,1780933332561.7249,7303,57,599620165224.8805,438.4615478515625
0,599620165340.2651,1780933332561.738,7253,58,599620165232.5729,446.1539306640625
0,599620165340.2651,1780933332561.751,7189,59,599620165240.2651,453.84619140625
0,599620165340.2651,1780933332561.764,7178,60,599620165247.9574,461.5384521484375
0,599620165340.2651,1780933332561.777,7224,61,599620165255.6498,469.2308349609375
0,599620165340.2651,1780933332561.79,7310,62,599620165263.342,476.923095703125
0,599620165340.2651,1780933332561.81,7253,63,599620165271.0344,484.615478515625
0,599620165340.2651,1780933332561.823,7046,64,599620165278.7267,492.3077392578125
0,599620165340.2651,1780933332561.839,6998,65,599620165286.419,500.0
0,599620165340.2651,1780933332561.852,7017,66,599620165294.1113,507.6923828125
0,599620165340.2651,1780933332561.865,6923,67,599620165301.8036,515.3846435546875
0,599620165340.2651,1780933332561.878,6942,68,599620165309.4958,523.076904296875
0,599620165340.2651,1780933332561.891,6973,69,599620165317.1882,530.769287109375
0,599620165340.2651,1780933332561.916,6775,70,599620165324.8805,538.4615478515625
0,599620165340.2651,1780933332561.93,6628,71,599620165332.5729,546.1539306640625
0,599620165340.2651,1780933332561.949,6612,72,599620165340.2651,553.84619140625
1,599620165901.8065,1780933333099.315,6523,0,599620165347.9603,561.5413818359375
1,599620165901.8065,1780933333099.326,6480,1,599620165355.6527,569.2337646484375
1,599620165901.8065,1780933333099.329,6482,2,599620165363.345,576.926025390625
1,599620165901.8065,1780933333099.332,6387,3,599620165371.0372,584.6182861328125
1,599620165901.8065,1780933333099.336,6305,4,599620165378.7296,592.3106689453125
1,599620165901.8065,1780933333099.339,6296,5,599620165386.4219,600.0029296875
1,599620165901.8065,1780933333099.3408,6268,6,599620165394.1143,607.6953125
1,599620165901.8065,1780933333099.344,6243,7,599620165401.8065,615.3875732421875
1,599620165901.8065,1780933333099.346,6223,8,599620165409.4988,623.079833984375
1,599620165901.8065,1780933333099.35,6205,9,599620165417.1912,630.772216796875
1,599620165901.8065,1780933333099.353,6143,10,599620165424.8834,638.4644775390625
1,599620165901.8065,1780933333099.355,5968,11,599620165432.5758,646.1568603515625
1,599620165901.8065,1780933333099.3582,5918,12,599620165440.2681,653.84912109375
1,599620165901.8065,1780933333099.3608,6189,13,599620165447.9603,661.5413818359375
1,599620165901.8065,1780933333099.363,6498,14,599620165455.6527,669.2337646484375
1,599620165901.8065,1780933333099.366,6414,15,599620165463.345,676.926025390625
1,599620165901.8065,1780933333099.3682,5786,16,599620165471.0372,684.6182861328125
1,599620165901.8065,1780933333099.3708,5138,17,599620165478.7296,692.3106689453125
1,599620165901.8065,1780933333099.373,5149,18,599620165486.4219,700.0029296875
1,599620165901.8065,1780933333099.376,5543,19,599620165494.1143,707.6953125
1,599620165901.8065,1780933333099.3792,5579,20,599620165501.8065,715.3875732421875
1,599620165901.8065,1780933333099.3818,5354,21,599620165509.4988,723.079833984375
1,599620165901.8065,1780933333099.384,5331,22,599620165517.1912,730.772216796875
1,599620165901.8065,1780933333099.387,5372,23,599620165524.8834,738.4644775390625
1,599620165901.8065,1780933333099.3892,5311,24,599620165532.5758,746.1568603515625
1,599620165901.8065,1780933333099.3918,5281,25,599620165540.2681,753.84912109375
1,599620165901.8065,1780933333099.394,5249,26,599620165547.9603,761.5413818359375
1,599620165901.8065,1780933333099.397,5163,27,599620165555.6527,769.2337646484375
1,599620165901.8065,1780933333099.3992,5126,28,599620165563.345,776.926025390625
1,599620165901.8065,1780933333099.4019,5131,29,599620165571.0372,784.6182861328125
1,599620165901.8065,1780933333099.404,5117,30,599620165578.7296,792.3106689453125
1,599620165901.8065,1780933333099.407,5067,31,599620165586.4219,800.0029296875
1,599620165901.8065,1780933333099.4092,4974,32,599620165594.1143,807.6953125
1,599620165901.8065,1780933333099.4119,4903,33,599620165601.8065,815.3875732421875
1,599620165901.8065,1780933333099.414,4888,34,599620165609.4988,823.079833984375
1,599620165901.8065,1780933333099.417,4865,35,599620165617.1912,830.772216796875
1,599620165901.8065,1780933333099.4202,4842,36,599620165624.8834,838.4644775390625
1,599620165901.8065,1780933333099.4219,4831,37,599620165632.5758,846.1568603515625
1,599620165901.8065,1780933333099.425,4783,38,599620165640.2681,853.84912109375
1,599620165901.8065,1780933333099.427,4724,39,599620165647.9603,861.5413818359375
1,599620165901.8065,1780933333099.4302,4722,40,599620165655.6527,869.2337646484375
1,599620165901.8065,1780933333099.432,4733,41,599620165663.345,876.926025390625
1,599620165901.8065,1780933333099.435,4726,42,599620165671.0372,884.6182861328125
1,599620165901.8065,1780933333099.437,4717,43,599620165678.7296,892.3106689453125
1,599620165901.8065,1780933333099.4402,4671,44,599620165686.4219,900.0029296875
1,599620165901.8065,1780933333099.442,4621,45,599620165694.1143,907.6953125
1,599620165901.8065,1780933333099.445,4606,46,599620165701.8065,915.3875732421875
1,599620165901.8065,1780933333099.448,4594,47,599620165709.4988,923.079833984375
1,599620165901.8065,1780933333099.4502,4580,48,599620165717.1912,930.772216796875
1,599620165901.8065,1780933333099.453,4533,49,599620165724.8834,938.4644775390625
1,599620165901.8065,1780933333099.455,4414,50,599620165732.5758,946.1568603515625
1,599620165901.8065,1780933333099.458,4273,51,599620165740.2681,953.84912109375
1,599620165901.8065,1780933333099.46,4112,52,599620165747.9603,961.5413818359375
1,599620165901.8065,1780933333099.463,3985,53,599620165755.6527,969.2337646484375
1,599620165901.8065,1780933333099.4648,3932,54,599620165763.345,976.926025390625
1,599620165901.8065,1780933333099.468,3862,55,599620165771.0372,984.6182861328125
1,599620165901.8065,1780933333099.4712,3764,56,599620165778.7296,992.3106689453125
1,599620165901.8065,1780933333099.4739,3705,57,599620165786.4219,1000.0029296875
1,599620165901.8065,1780933333099.476,3668,58,599620165794.1143,1007.6953125
1,599620165901.8065,1780933333099.479,3632,59,599620165801.8065,1015.3875732421875
1,599620165901.8065,1780933333099.4812,3607,60,599620165809.4988,1023.079833984375
1,599620165901.8065,1780933333099.484,3584,61,599620165817.1912,1030.772216796875
1,599620165901.8065,1780933333099.486,3543,62,599620165824.8834,1038.4644775390625
1,599620165901.8065,1780933333099.489,3473,63,599620165832.5758,1046.1568603515625
1,599620165901.8065,1780933333099.491,3416,64,599620165840.2681,1053.84912109375
1,599620165901.8065,1780933333099.494,3402,65,599620165847.9603,1061.5413818359375
1,599620165901.8065,1780933333099.4958,3386,66,599620165855.6527,1069.2337646484375
1,599620165901.8065,1780933333099.499,3336,67,599620165863.345,1076.926025390625
1,599620165901.8065,1780933333099.501,3289,68,599620165871.0372,1084.6182861328125
1,599620165901.8065,1780933333099.504,3254,69,599620165878.7296,1092.3106689453125
1,599620165901.8065,1780933333099.5059,3259,70,599620165886.4219,1100.0029296875
1,599620165901.8065,1780933333099.509,3277,71,599620165894.1143,1107.6953125
1,599620165901.8065,1780933333099.511,3188,72,599620165901.8065,1115.3875732421875
2,599620166463.3734,1780933333685.99,3036,0,599620165909.5272,1123.1082763671875
2,599620166463.3734,1780933333686.0,2986,1,599620165917.2196,1130.8006591796875
2,599620166463.3734,1780933333686.003,2991,2,599620165924.9119,1138.492919921875
2,599620166463.3734,1780933333686.008,2956,3,599620165932.6041,1146.1851806640625
2,599620166463.3734,1780933333686.011,2938,4,599620165940.2965,1153.8775634765625
2,599620166463.3734,1780933333686.013,2931,5,599620165947.9888,1161.56982421875
2,599620166463.3734,1780933333686.016,2900,6,599620165955.6812,1169.26220703125
2,599620166463.3734,1780933333686.019,2863,7,599620165963.3734,1176.9544677734375
2,599620166463.3734,1780933333686.021,2836,8,599620165971.0657,1184.646728515625
2,599620166463.3734,1780933333686.024,2820,9,599620165978.758,1192.339111328125
2,599620166463.3734,1780933333686.0261,2820,10,599620165986.4503,1200.0313720703125
2,599620166463.3734,1780933333686.029,2790,11,599620165994.1427,1207.7237548828125
2,599620166463.3734,1780933333686.031,2720,12,599620166001.835,1215.416015625
2,599620166463.3734,1780933333686.034,2677,13,599620166009.5272,1223.1082763671875
2,599620166463.3734,1780933333686.037,2665,14,599620166017.2196,1230.8006591796875
2,599620166463.3734,1780933333686.039,2645,15,599620166024.9119,1238.492919921875
2,599620166463.3734,1780933333686.042,2633,16,599620166032.6041,1246.1851806640625
2,599620166463.3734,1780933333686.044,2618,17,599620166040.2965,1253.8775634765625
2,599620166463.3734,1780933333686.047,2593,18,599620166047.9888,1261.56982421875
2,599620166463.3734,1780933333686.049,2558,19,599620166055.6812,1269.26220703125
2,599620166463.3734,1780933333686.052,2474,20,599620166063.3734,1276.9544677734375
2,599620166463.3734,1780933333686.055,2399,21,599620166071.0657,1284.646728515625
2,599620166463.3734,1780933333686.0571,2376,22,599620166078.758,1292.339111328125
2,599620166463.3734,1780933333686.06,2320,23,599620166086.4503,1300.0313720703125
2,599620166463.3734,1780933333686.062,2258,24,599620166094.1427,1307.7237548828125
2,599620166463.3734,1780933333686.065,2254,25,599620166101.835,1315.416015625
2,599620166463.3734,1780933333686.074,2247,26,599620166109.5272,1323.1082763671875
2,599620166463.3734,1780933333686.0771,2224,27,599620166117.2196,1330.8006591796875
2,599620166463.3734,1780933333686.08,2224,28,599620166124.9119,1338.492919921875
2,599620166463.3734,1780933333686.0818,2229,29,599620166132.6041,1346.1851806640625
2,599620166463.3734,1780933333686.085,2226,30,599620166140.2965,1353.8775634765625
2,599620166463.3734,1780933333686.087,2235,31,599620166147.9888,1361.56982421875
2,599620166463.3734,1780933333686.09,2245,32,599620166155.6812,1369.26220703125
2,599620166463.3734,1780933333686.0918,2235,33,599620166163.3734,1376.9544677734375
2,599620166463.3734,1780933333686.095,2197,34,599620166171.0657,1384.646728515625
2,599620166463.3734,1780933333686.097,2147,35,599620166178.758,1392.339111328125
2,599620166463.3734,1780933333686.1,2122,36,599620166186.4503,1400.0313720703125
2,599620166463.3734,1780933333686.1018,2097,37,599620166194.1427,1407.7237548828125
2,599620166463.3734,1780933333686.105,2047,38,599620166201.835,1415.416015625
2,599620166463.3734,1780933333686.107,2017,39,599620166209.5272,1423.1082763671875
2,599620166463.3734,1780933333686.11,2008,40,599620166217.2196,1430.8006591796875
2,599620166463.3734,1780933333686.1118,1940,41,599620166224.9119,1438.492919921875
2,599620166463.3734,1780933333686.115,1874,42,599620166232.6041,1446.1851806640625
2,599620166463.3734,1780933333686.117,1867,43,599620166240.2965,1453.8775634765625
2,599620166463.3734,1780933333686.12,1862,44,599620166247.9888,1461.56982421875
2,599620166463.3734,1780933333686.1218,1849,45,599620166255.6812,1469.26220703125
2,599620166463.3734,1780933333686.125,1833,46,599620166263.3734,1476.9544677734375
2,599620166463.3734,1780933333686.128,1792,47,599620166271.0657,1484.646728515625
2,599620166463.3734,1780933333686.1301,1774,48,599620166278.758,1492.339111328125
2,599620166463.3734,1780933333686.1328,1785,49,599620166286.4503,1500.0313720703125
2,599620166463.3734,1780933333686.135,1776,50,599620166294.1427,1507.7237548828125
2,599620166463.3734,1780933333686.138,1760,51,599620166301.835,1515.416015625
2,599620166463.3734,1780933333686.1401,1749,52,599620166309.5272,1523.1082763671875
2,599620166463.3734,1780933333686.1428,1803,53,599620166317.2196,1530.8006591796875
2,599620166463.3734,1780933333686.145,2051,54,599620166324.9119,1538.492919921875
2,599620166463.3734,1780933333686.148,2374,55,599620166332.6041,1546.1851806640625
2,599620166463.3734,1780933333686.1511,2254,56,599620166340.2965,1553.8775634765625
2,599620166463.3734,1780933333686.1528,1553,57,599620166347.9888,1561.56982421875
2,599620166463.3734,1780933333686.156,1078,58,599620166355.6812,1569.26220703125
2,599620166463.3734,1780933333686.158,1326,59,599620166363.3734,1576.9544677734375
2,599620166463.3734,1780933333686.1611,1658,60,599620166371.0657,1584.646728515625
2,599620166463.3734,1780933333686.1628,1608,61,599620166378.758,1592.339111328125
2,599620166463.3734,1780933333686.166,1496,62,599620166386.4503,1600.0313720703125
2,599620166463.3734,1780933333686.169,1535,63,599620166394.1427,1607.7237548828125
2,599620166463.3734,1780933333686.1711,1544,64,599620166401.835,1615.416015625
2,599620166463.3734,1780933333686.1738,1505,65,599620166409.5272,1623.1082763671875
2,599620166463.3734,1780933333686.176,1505,66,599620166417.2196,1630.8006591796875
2,599620166463.3734,1780933333686.179,1514,67,599620166424.9119,1638.492919921875
2,599620166463.3734,1780933333686.1812,1508,68,599620166432.6041,1646.1851806640625
2,599620166463.3734,1780933333686.1838,1501,69,599620166440.2965,1653.8775634765625
2,599620166463.3734,1780933333686.186,1467,70,599620166447.9888,1661.56982421875
2,599620166463.3734,1780933333686.189,1439,71,599620166455.6812,1669.26220703125
2,599620166463.3734,1780933333686.1912,1455,72,599620166463.3734,1676.9544677734375
3,599620167024.9198,1780933334180.564,1460,0,599620166471.0736,1684.6546630859375
3,599620167024.9198,1780933334180.575,1446,1,599620166478.766,1692.3470458984375
3,599620167024.9198,1780933334180.578,1448,2,599620166486.4583,1700.039306640625
3,599620167024.9198,1780933334180.581,1448,3,599620166494.1505,1707.7315673828125
3,599620167024.9198,1780933334180.583,1453,4,599620166501.8429,1715.4239501953125
3,599620167024.9198,1780933334180.5862,1473,5,599620166509.5352,1723.1162109375
3,599620167024.9198,1780933334180.5889,1480,6,599620166517.2275,1730.80859375
3,599620167024.9198,1780933334180.591,1485,7,599620166524.9198,1738.5008544921875
3,599620167024.9198,1780933334180.594,1478,8,599620166532.612,1746.193115234375
3,599620167024.9198,1780933334180.598,1442,9,599620166540.3044,1753.885498046875
3,599620167024.9198,1780933334180.5999,1446,10,599620166547.9967,1761.5777587890625
3,599620167024.9198,1780933334180.603,1496,11,599620166555.6891,1769.2701416015625
3,599620167024.9198,1780933334180.605,1512,12,599620166563.3813,1776.96240234375
3,599620167024.9198,1780933334180.6082,1489,13,599620166571.0736,1784.6546630859375
3,599620167024.9198,1780933334180.612,1458,14,599620166578.766,1792.3470458984375
3,599620167024.9198,1780933334180.615,1421,15,599620166586.4583,1800.039306640625
3,599620167024.9198,1780933334180.6172,1403,16,599620166594.1505,1807.7315673828125
3,599620167024.9198,1780933334180.6199,1385,17,599620166601.8429,1815.4239501953125
3,599620167024.9198,1780933334180.623,1332,18,599620166609.5352,1823.1162109375
3,599620167024.9198,1780933334180.625,1255,19,599620166617.2275,1830.80859375
3,599620167024.9198,1780933334180.6282,1162,20,599620166624.9198,1838.5008544921875
3,599620167024.9198,1780933334180.63,1075,21,599620166632.612,1846.193115234375
3,599620167024.9198,1780933334180.633,1030,22,599620166640.3044,1853.885498046875
3,599620167024.9198,1780933334180.635,1007,23,599620166647.9967,1861.5777587890625
3,599620167024.9198,1780933334180.6382,982,24,599620166655.6891,1869.2701416015625
3,599620167024.9198,1780933334180.64,950,25,599620166663.3813,1876.96240234375
3,599620167024.9198,1780933334180.643,925,26,599620166671.0736,1884.6546630859375
3,599620167024.9198,1780933334180.645,925,27,599620166678.766,1892.3470458984375
3,599620167024.9198,1780933334180.6482,923,28,599620166686.4583,1900.039306640625
3,599620167024.9198,1780933334180.651,875,29,599620166694.1505,1907.7315673828125
3,599620167024.9198,1780933334180.654,825,30,599620166701.8429,1915.4239501953125
3,599620167024.9198,1780933334180.656,834,31,599620166709.5352,1923.1162109375
3,599620167024.9198,1780933334180.659,846,32,599620166717.2275,1930.80859375
3,599620167024.9198,1780933334180.661,834,33,599620166724.9198,1938.5008544921875
3,599620167024.9198,1780933334180.664,839,34,599620166732.612,1946.193115234375
3,599620167024.9198,1780933334180.666,855,35,599620166740.3044,1953.885498046875
3,599620167024.9198,1780933334180.6692,857,36,599620166747.9967,1961.5777587890625
3,599620167024.9198,1780933334180.6719,846,37,599620166755.6891,1969.2701416015625
3,599620167024.9198,1780933334180.674,839,38,599620166763.3813,1976.96240234375
3,599620167024.9198,1780933334180.677,837,39,599620166771.0736,1984.6546630859375
3,599620167024.9198,1780933334180.6792,841,40,599620166778.766,1992.3470458984375
3,599620167024.9198,1780933334180.682,850,41,599620166786.4583,2000.039306640625
3,599620167024.9198,1780933334180.684,850,42,599620166794.1505,2007.7315673828125
3,599620167024.9198,1780933334180.687,827,43,599620166801.8429,2015.4239501953125
3,599620167024.9198,1780933334180.6892,791,44,599620166809.5352,2023.1162109375
3,599620167024.9198,1780933334180.692,766,45,599620166817.2275,2030.80859375
3,599620167024.9198,1780933334180.694,764,46,599620166824.9198,2038.5008544921875
3,599620167024.9198,1780933334180.697,771,47,599620166832.612,2046.193115234375
3,599620167024.9198,1780933334180.6992,773,48,599620166840.3044,2053.885498046875
3,599620167024.9198,1780933334180.702,757,49,599620166847.9967,2061.5777587890625
3,599620167024.9198,1780933334180.704,725,50,599620166855.6891,2069.2701416015625
3,599620167024.9198,1780933334180.707,705,51,599620166863.3813,2076.96240234375
3,599620167024.9198,1780933334180.71,721,52,599620166871.0736,2084.6546630859375
3,599620167024.9198,1780933334180.712,736,53,599620166878.766,2092.3470458984375
3,599620167024.9198,1780933334180.715,734,54,599620166886.4583,2100.039306640625
3,599620167024.9198,1780933334180.717,723,55,599620166894.1505,2107.7315673828125
3,599620167024.9198,1780933334180.72,718,56,599620166901.8429,2115.4239501953125
3,599620167024.9198,1780933334180.722,727,57,599620166909.5352,2123.1162109375
3,599620167024.9198,1780933334180.725,741,58,599620166917.2275,2130.80859375
3,599620167024.9198,1780933334180.727,748,59,599620166924.9198,2138.5008544921875
3,599620167024.9198,1780933334180.7302,739,60,599620166932.612,2146.193115234375
3,599620167024.9198,1780933334180.732,716,61,599620166940.3044,2153.885498046875
3,599620167024.9198,1780933334180.735,711,62,599620166947.9967,2161.5777587890625
3,599620167024.9198,1780933334180.737,725,63,599620166955.6891,2169.2701416015625
3,599620167024.9198,1780933334180.7402,739,64,599620166963.3813,2176.96240234375
3,599620167024.9198,1780933334180.742,734,65,599620166971.0736,2184.6546630859375
3,599620167024.9198,1780933334180.7449,702,66,599620166978.766,2192.3470458984375
3,599620167024.9198,1780933334180.747,680,67,599620166986.4583,2200.039306640625
3,599620167024.9198,1780933334180.75,698,68,599620166994.1505,2207.7315673828125
3,599620167024.9198,1780933334180.752,725,69,599620167001.8429,2215.4239501953125
3,599620167024.9198,1780933334180.755,732,70,599620167009.5352,2223.1162109375
3,599620167024.9198,1780933334180.757,725,71,599620167017.2275,2230.80859375
3,599620167024.9198,1780933334180.76,693,72,599620167024.9198,2238.5008544921875
4,599620167586.4764,1780933334764.426,655,0,599620167032.6302,2246.2113037109375
4,599620167586.4764,1780933334764.448,641,1,599620167040.3226,2253.9036865234375
4,599620167586.4764,1780933334764.451,648,2,599620167048.0149,2261.595947265625
4,599620167586.4764,1780933334764.4539,636,3,599620167055.7072,2269.2882080078125
4,599620167586.4764,1780933334764.457,593,4,599620167063.3995,2276.9805908203125
4,599620167586.4764,1780933334764.4602,534,5,599620167071.0918,2284.6728515625
4,599620167586.4764,1780933334764.4639,486,6,599620167078.7842,2292.365234375
4,599620167586.4764,1780933334764.472,475,7,599620167086.4764,2300.0574951171875
4,599620167586.4764,1780933334764.475,486,8,599620167094.1687,2307.749755859375
4,599620167586.4764,1780933334764.477,500,9,599620167101.8611,2315.442138671875
4,599620167586.4764,1780933334764.4802,511,10,599620167109.5533,2323.1343994140625
4,599620167586.4764,1780933334764.482,504,11,599620167117.2457,2330.8267822265625
4,599620167586.4764,1780933334764.4849,493,12,599620167124.938,2338.51904296875
4,599620167586.4764,1780933334764.488,502,13,599620167132.6302,2346.2113037109375
4,599620167586.4764,1780933334764.49,520,14,599620167140.3226,2353.9036865234375
4,599620167586.4764,1780933334764.493,532,15,599620167148.0149,2361.595947265625
4,599620167586.4764,1780933334764.496,532,16,599620167155.7072,2369.2882080078125
4,599620167586.4764,1780933334764.5,511,17,599620167163.3995,2376.9805908203125
4,599620167586.4764,1780933334764.503,468,18,599620167171.0918,2384.6728515625
4,599620167586.4764,1780933334764.505,486,19,599620167178.7842,2392.365234375
4,599620167586.4764,1780933334764.508,700,20,599620167186.4764,2400.0574951171875
4,599620167586.4764,1780933334764.5112,1073,21,599620167194.1687,2407.749755859375
4,599620167586.4764,1780933334764.513,1105,22,599620167201.8611,2415.442138671875
4,599620167586.4764,1780933334764.516,470,23,599620167209.5533,2423.1343994140625
4,599620167586.4764,1780933334764.518,-111,24,599620167217.2457,2430.8267822265625
4,599620167586.4764,1780933334764.521,65,25,599620167224.938,2438.51904296875
4,599620167586.4764,1780933334764.524,475,26,599620167232.6302,2446.2113037109375
4,599620167586.4764,1780933334764.526,536,27,599620167240.3226,2453.9036865234375
4,599620167586.4764,1780933334764.529,486,28,599620167248.0149,2461.595947265625
4,599620167586.4764,1780933334764.531,532,29,599620167255.7072,2469.2882080078125
4,599620167586.4764,1780933334764.534,554,30,599620167263.3995,2476.9805908203125
4,599620167586.4764,1780933334764.536,541,31,599620167271.0918,2484.6728515625
4,599620167586.4764,1780933334764.539,559,32,599620167278.7842,2492.365234375
4,599620167586.4764,1780933334764.541,586,33,599620167286.4764,2500.0574951171875
4,599620167586.4764,1780933334764.544,591,34,599620167294.1687,2507.749755859375
4,599620167586.4764,1780933334764.547,582,35,599620167301.8611,2515.442138671875
4,599620167586.4764,1780933334764.549,566,36,599620167309.5533,2523.1343994140625
4,599620167586.4764,1780933334764.552,561,37,599620167317.2457,2530.8267822265625
4,599620167586.4764,1780933334764.554,570,38,599620167324.938,2538.51904296875
4,599620167586.4764,1780933334764.557,564,39,599620167332.6302,2546.2113037109375
4,599620167586.4764,1780933334764.559,516,40,599620167340.3226,2553.9036865234375
4,599620167586.4764,1780933334764.562,473,41,599620167348.0149,2561.595947265625
4,599620167586.4764,1780933334764.564,484,42,599620167355.7072,2569.2882080078125
4,599620167586.4764,1780933334764.567,516,43,599620167363.3995,2576.9805908203125
4,599620167586.4764,1780933334764.569,534,44,599620167371.0918,2584.6728515625
4,599620167586.4764,1780933334764.572,552,45,599620167378.7842,2592.365234375
4,599620167586.4764,1780933334764.575,575,46,599620167386.4764,2600.0574951171875
4,599620167586.4764,1780933334764.577,598,47,599620167394.1687,2607.749755859375
4,599620167586.4764,1780933334764.58,616,48,599620167401.8611,2615.442138671875
4,599620167586.4764,1780933334764.582,645,49,599620167409.5533,2623.1343994140625
4,599620167586.4764,1780933334764.585,693,50,599620167417.2457,2630.8267822265625
4,599620167586.4764,1780933334764.587,734,51,599620167424.938,2638.51904296875
4,599620167586.4764,1780933334764.59,746,52,599620167432.6302,2646.2113037109375
4,599620167586.4764,1780933334764.592,746,53,599620167440.3226,2653.9036865234375
4,599620167586.4764,1780933334764.595,759,54,599620167448.0149,2661.595947265625
4,599620167586.4764,1780933334764.597,773,55,599620167455.7072,2669.2882080078125
4,599620167586.4764,1780933334764.6,757,56,599620167463.3995,2676.9805908203125
4,599620167586.4764,1780933334764.602,718,57,599620167471.0918,2684.6728515625
4,599620167586.4764,1780933334764.605,661,58,599620167478.7842,2692.365234375
4,599620167586.4764,1780933334764.607,584,59,599620167486.4764,2700.0574951171875
4,599620167586.4764,1780933334764.61,477,60,599620167494.1687,2707.749755859375
4,599620167586.4764,1780933334764.6128,375,61,599620167501.8611,2715.442138671875
4,599620167586.4764,1780933334764.616,332,62,599620167509.5533,2723.1343994140625
4,599620167586.4764,1780933334764.618,325,63,599620167517.2457,2730.8267822265625
4,599620167586.4764,1780933334764.621,286,64,599620167524.938,2738.51904296875
4,599620167586.4764,1780933334764.624,254,65,599620167532.6302,2746.2113037109375
4,599620167586.4764,1780933334764.626,263,66,599620167540.3226,2753.9036865234375
4,599620167586.4764,1780933334764.629,270,67,599620167548.0149,2761.595947265625
4,599620167586.4764,1780933334764.631,254,68,599620167555.7072,2769.2882080078125
4,599620167586.4764,1780933334764.6338,257,69,599620167563.3995,2776.9805908203125
4,599620167586.4764,1780933334764.636,268,70,599620167571.0918,2784.6728515625
4,599620167586.4764,1780933334764.639,268,71,599620167578.7842,2792.365234375
4,599620167586.4764,1780933334764.641,277,72,599620167586.4764,2800.0574951171875
5,599620168148.0127,1780933335350.107,297,0,599620167594.1665,2807.74755859375
5,599620168148.0127,1780933335350.1191,313,1,599620167601.8589,2815.43994140625
5,599620168148.0127,1780933335350.1238,318,2,599620167609.5511,2823.1322021484375
5,599620168148.0127,1780933335350.127,318,3,599620167617.2434,2830.824462890625
5,599620168148.0127,1780933335350.1301,327,4,599620167624.9358,2838.516845703125
5,599620168148.0127,1780933335350.133,348,5,599620167632.628,2846.2091064453125
5,599620168148.0127,1780933335350.136,359,6,599620167640.3204,2853.9014892578125
5,599620168148.0127,1780933335350.138,334,7,599620167648.0127,2861.59375
5,599620168148.0127,1780933335350.141,270,8,599620167655.705,2869.2860107421875
5,599620168148.0127,1780933335350.1438,222,9,599620167663.3973,2876.9783935546875
5,599620168148.0127,1780933335350.146,229,10,599620167671.0896,2884.670654296875
5,599620168148.0127,1780933335350.149,250,11,599620167678.782,2892.363037109375
5,599620168148.0127,1780933335350.152,259,12,599620167686.4742,2900.0552978515625
5,599620168148.0127,1780933335350.1538,259,13,599620167694.1665,2907.74755859375
5,599620168148.0127,1780933335350.157,241,14,599620167701.8589,2915.43994140625
5,599620168148.0127,1780933335350.159,222,15,599620167709.5511,2923.1322021484375
5,599620168148.0127,1780933335350.162,236,16,599620167717.2434,2930.824462890625
5,599620168148.0127,1780933335350.1638,257,17,599620167724.9358,2938.516845703125
5,599620168148.0127,1780933335350.167,263,18,599620167732.628,2946.2091064453125
5,599620168148.0127,1780933335350.17,284,19,599620167740.3204,2953.9014892578125
5,599620168148.0127,1780933335350.172,297,20,599620167748.0127,2961.59375
5,599620168148.0127,1780933335350.1748,286,21,599620167755.705,2969.2860107421875
5,599620168148.0127,1780933335350.177,282,22,599620167763.3973,2976.9783935546875
5,599620168148.0127,1780933335350.18,309,23,599620167771.0896,2984.670654296875
5,599620168148.0127,1780933335350.1821,329,24,599620167778.782,2992.363037109375
5,599620168148.0127,1780933335350.1848,325,25,599620167786.4742,3000.0552978515625
5,599620168148.0127,1780933335350.187,325,26,599620167794.1665,3007.74755859375
5,599620168148.0127,1780933335350.19,327,27,599620167801.8589,3015.43994140625
5,599620168148.0127,1780933335350.1921,302,28,599620167809.5511,3023.1322021484375
5,599620168148.0127,1780933335350.1948,252,29,599620167817.2434,3030.824462890625
5,599620168148.0127,1780933335350.197,234,30,599620167824.9358,3038.516845703125
5,599620168148.0127,1780933335350.2,266,31,599620167832.628,3046.2091064453125
5,599620168148.0127,1780933335350.2021,291,32,599620167840.3204,3053.9014892578125
5,599620168148.0127,1780933335350.2048,304,33,599620167848.0127,3061.59375
5,599620168148.0127,1780933335350.207,338,34,599620167855.705,3069.2860107421875
5,599620168148.0127,1780933335350.21,359,35,599620167863.3973,3076.9783935546875
5,599620168148.0127,1780933335350.214,354,36,599620167871.0896,3084.670654296875
5,599620168148.0127,1780933335350.217,327,37,599620167878.782,3092.363037109375
5,599620168148.0127,1780933335350.22,286,38,599620167886.4742,3100.0552978515625
5,599620168148.0127,1780933335350.227,263,39,599620167894.1665,3107.74755859375
5,599620168148.0127,1780933335350.229,261,40,599620167901.8589,3115.43994140625
5,599620168148.0127,1780933335350.232,257,41,599620167909.5511,3123.1322021484375
5,599620168148.0127,1780933335350.2349,247,42,599620167917.2434,3130.824462890625
5,599620168148.0127,1780933335350.2368,241,43,599620167924.9358,3138.516845703125
5,599620168148.0127,1780933335350.24,243,44,599620167932.628,3146.2091064453125
5,599620168148.0127,1780933335350.242,263,45,599620167940.3204,3153.9014892578125
5,599620168148.0127,1780933335350.245,279,46,599620167948.0127,3161.59375
5,599620168148.0127,1780933335350.2468,282,47,599620167955.705,3169.2860107421875
5,599620168148.0127,1780933335350.25,272,48,599620167963.3973,3176.9783935546875
5,599620168148.0127,1780933335350.252,243,49,599620167971.0896,3184.670654296875
5,599620168148.0127,1780933335350.2551,234,50,599620167978.782,3192.363037109375
5,599620168148.0127,1780933335350.2568,250,51,599620167986.4742,3200.0552978515625
5,599620168148.0127,1780933335350.26,254,52,599620167994.1665,3207.74755859375
5,599620168148.0127,1780933335350.262,257,53,599620168001.8589,3215.43994140625
5,599620168148.0127,1780933335350.2651,279,54,599620168009.5511,3223.1322021484375
5,599620168148.0127,1780933335350.2678,348,55,599620168017.2434,3230.824462890625
5,599620168148.0127,1780933335350.27,586,56,599620168024.9358,3238.516845703125
5,599620168148.0127,1780933335350.273,925,57,599620168032.628,3246.2091064453125
5,599620168148.0127,1780933335350.2751,816,58,599620168040.3204,3253.9014892578125
5,599620168148.0127,1780933335350.2778,102,59,599620168048.0127,3261.59375
5,599620168148.0127,1780933335350.28,-366,60,599620168055.705,3269.2860107421875
5,599620168148.0127,1780933335350.2842,-152,61,599620168063.3973,3276.9783935546875
5,599620168148.0127,1780933335350.2869,159,62,599620168071.0896,3284.670654296875
5,599620168148.0127,1780933335350.29,236,63,599620168078.782,3292.363037109375
5,599620168148.0127,1780933335350.292,243,64,599620168086.4742,3300.0552978515625
5,599620168148.0127,1780933335350.2952,270,65,599620168094.1665,3307.74755859375
5,599620168148.0127,1780933335350.2969,288,66,599620168101.8589,3315.43994140625
5,599620168148.0127,1780933335350.3,293,67,599620168109.5511,3323.1322021484375
5,599620168148.0127,1780933335350.302,302,68,599620168117.2434,3330.824462890625
5,599620168148.0127,1780933335350.3052,295,69,599620168124.9358,3338.516845703125
5,599620168148.0127,1780933335350.307,259,70,599620168132.628,3346.2091064453125
5,599620168148.0127,1780933335350.31,236,71,599620168140.3204,3353.9014892578125
5,599620168148.0127,1780933335350.312,252,72,599620168148.0127,3361.59375
6,599620168709.5745,1780933335934.7341,263,0,599620168155.7283,3369.309326171875
6,599620168709.5745,1780933335934.742,272,1,599620168163.4207,3377.001708984375
6,599620168709.5745,1780933335934.747,295,2,599620168171.1129,3384.6939697265625
6,599620168709.5745,1780933335934.751,304,3,599620168178.8052,3392.38623046875
6,599620168709.5745,1780933335934.754,309,4,599620168186.4976,3400.07861328125
6,599620168709.5745,1780933335934.758,318,5,599620168194.1898,3407.7708740234375
6,599620168709.5745,1780933335934.761,302,6,599620168201.8822,3415.4632568359375
6,599620168709.5745,1780933335934.7651,300,7,599620168209.5745,3423.155517578125
6,599620168709.5745,1780933335934.7688,338,8,599620168217.2667,3430.8477783203125
6,599620168709.5745,1780933335934.772,363,9,599620168224.9591,3438.5401611328125
6,599620168709.5745,1780933335934.867,370,10,599620168232.6514,3446.232421875
6,599620168709.5745,1780933335934.905,366,11,599620168240.3438,3453.9248046875
6,599620168709.5745,1780933335934.908,332,12,599620168248.036,3461.6170654296875
6,599620168709.5745,1780933335934.9111,345,13,599620168255.7283,3469.309326171875
6,599620168709.5745,1780933335934.914,404,14,599620168263.4207,3477.001708984375
6,599620168709.5745,1780933335934.916,425,15,599620168271.1129,3484.6939697265625
6,599620168709.5745,1780933335934.9192,436,16,599620168278.8052,3492.38623046875
6,599620168709.5745,1780933335934.9211,450,17,599620168286.4976,3500.07861328125
6,599620168709.5745,1780933335934.9238,436,18,599620168294.1898,3507.7708740234375
6,599620168709.5745,1780933335934.929,404,19,599620168301.8822,3515.4632568359375
6,599620168709.5745,1780933335934.9312,370,20,599620168309.5745,3523.155517578125
6,599620168709.5745,1780933335934.9338,311,21,599620168317.2667,3530.8477783203125
6,599620168709.5745,1780933335934.936,250,22,599620168324.9591,3538.5401611328125
6,599620168709.5745,1780933335934.939,209,23,599620168332.6514,3546.232421875
6,599620168709.5745,1780933335934.942,175,24,599620168340.3438,3553.9248046875
6,599620168709.5745,1780933335934.9438,141,25,599620168348.036,3561.6170654296875
6,599620168709.5745,1780933335934.947,122,26,599620168355.7283,3569.309326171875
6,599620168709.5745,1780933335934.9502,113,27,599620168363.4207,3577.001708984375
6,599620168709.5745,1780933335934.952,109,28,599620168371.1129,3584.6939697265625
6,599620168709.5745,1780933335934.9548,109,29,599620168378.8052,3592.38623046875
6,599620168709.5745,1780933335934.957,120,30,599620168386.4976,3600.07861328125
6,599620168709.5745,1780933335934.96,127,31,599620168394.1898,3607.7708740234375
6,599620168709.5745,1780933335934.962,134,32,599620168401.8822,3615.4632568359375
6,599620168709.5745,1780933335934.9648,143,33,599620168409.5745,3623.155517578125
6,599620168709.5745,1780933335934.967,131,34,599620168417.2667,3630.8477783203125
6,599620168709.5745,1780933335934.9722,104,35,599620168424.9591,3638.5401611328125
6,599620168709.5745,1780933335934.9739,93,36,599620168432.6514,3646.232421875
6,599620168709.5745,1780933335934.977,81,37,599620168440.3438,3653.9248046875
6,599620168709.5745,1780933335934.98,65,38,599620168448.036,3661.6170654296875
6,599620168709.5745,1780933335934.9822,77,39,599620168455.7283,3669.309326171875
6,599620168709.5745,1780933335934.9849,95,40,599620168463.4207,3677.001708984375
6,599620168709.5745,1780933335934.987,86,41,599620168471.1129,3684.6939697265625
6,599620168709.5745,1780933335934.99,84,42,599620168478.8052,3692.38623046875
6,599620168709.5745,1780933335934.9922,113,43,599620168486.4976,3700.07861328125
6,599620168709.5745,1780933335934.9949,134,44,599620168494.1898,3707.7708740234375
6,599620168709.5745,1780933335934.998,127,45,599620168501.8822,3715.4632568359375
6,599620168709.5745,1780933335935.0,129,46,599620168509.5745,3723.155517578125
6,599620168709.5745,1780933335935.003,145,47,599620168517.2667,3730.8477783203125
6,599620168709.5745,1780933335935.005,159,48,599620168524.9591,3738.5401611328125
6,599620168709.5745,1780933335935.008,154,49,599620168532.6514,3746.232421875
6,599620168709.5745,1780933335935.01,138,50,599620168540.3438,3753.9248046875
6,599620168709.5745,1780933335935.013,134,51,599620168548.036,3761.6170654296875
6,599620168709.5745,1780933335935.015,138,52,599620168555.7283,3769.309326171875
6,599620168709.5745,1780933335935.018,136,53,599620168563.4207,3777.001708984375
6,599620168709.5745,1780933335935.02,147,54,599620168571.1129,3784.6939697265625
6,599620168709.5745,1780933335935.023,168,55,599620168578.8052,3792.38623046875
6,599620168709.5745,1780933335935.04,150,56,599620168586.4976,3800.07861328125
6,599620168709.5745,1780933335935.046,86,57,599620168594.1898,3807.7708740234375
6,599620168709.5745,1780933335935.049,38,58,599620168601.8822,3815.4632568359375
6,599620168709.5745,1780933335935.051,29,59,599620168609.5745,3823.155517578125
6,599620168709.5745,1780933335935.054,43,60,599620168617.2667,3830.8477783203125
6,599620168709.5745,1780933335935.057,54,61,599620168624.9591,3838.5401611328125
6,599620168709.5745,1780933335935.059,63,62,599620168632.6514,3846.232421875
6,599620168709.5745,1780933335935.062,68,63,599620168640.3438,3853.9248046875
6,599620168709.5745,1780933335935.065,70,64,599620168648.036,3861.6170654296875
6,599620168709.5745,1780933335935.0679,77,65,599620168655.7283,3869.309326171875
6,599620168709.5745,1780933335935.071,95,66,599620168663.4207,3877.001708984375
6,599620168709.5745,1780933335935.074,125,67,599620168671.1129,3884.6939697265625
6,599620168709.5745,1780933335935.076,154,68,599620168678.8052,3892.38623046875
6,599620168709.5745,1780933335935.079,179,69,599620168686.4976,3900.07861328125
6,599620168709.5745,1780933335935.081,204,70,599620168694.1898,3907.7708740234375
6,599620168709.5745,1780933335935.084,209,71,599620168701.8822,3915.4632568359375
6,599620168709.5745,1780933335935.087,195,72,599620168709.5745,3923.155517578125
7,599620169271.1362,1780933336475.825,193,0,599620168717.29,3930.87109375
7,599620169271.1362,1780933336475.836,195,1,599620168724.9824,3938.5634765625
7,599620169271.1362,1780933336475.8389,181,2,599620168732.6747,3946.2557373046875
7,599620169271.1362,1780933336475.843,161,3,599620168740.367,3953.947998046875
7,599620169271.1362,1780933336475.847,129,4,599620168748.0593,3961.640380859375
7,599620169271.1362,1780933336475.851,77,5,599620168755.7516,3969.3326416015625
7,599620169271.1362,1780933336475.8552,52,6,599620168763.444,3977.0250244140625
7,599620169271.1362,1780933336475.858,63,7,599620168771.1362,3984.71728515625
7,599620169271.1362,1780933336475.861,61,8,599620168778.8285,3992.4095458984375
7,599620169271.1362,1780933336475.864,36,9,599620168786.5209,4000.1019287109375
7,599620169271.1362,1780933336475.869,36,10,599620168794.2131,4007.794189453125
7,599620169271.1362,1780933336475.872,70,11,599620168801.9055,4015.486572265625
7,599620169271.1362,1780933336475.875,90,12,599620168809.5978,4023.1788330078125
7,599620169271.1362,1780933336475.878,93,13,599620168817.29,4030.87109375
7,599620169271.1362,1780933336475.881,61,14,599620168824.9824,4038.5634765625
7,599620169271.1362,1780933336475.884,9,15,599620168832.6747,4046.2557373046875
7,599620169271.1362,1780933336475.888,2,16,599620168840.367,4053.947998046875
7,599620169271.1362,1780933336475.891,38,17,599620168848.0593,4061.640380859375
7,599620169271.1362,1780933336475.894,127,18,599620168855.7516,4069.3326416015625
7,599620169271.1362,1780933336475.897,400,19,599620168863.444,4077.0250244140625
7,599620169271.1362,1780933336475.901,739,20,599620168871.1362,4084.71728515625
7,599620169271.1362,1780933336475.904,600,21,599620168878.8285,4092.4095458984375
7,599620169271.1362,1780933336475.907,-102,22,599620168886.5209,4100.1019287109375
7,599620169271.1362,1780933336475.91,-504,23,599620168894.2131,4107.794189453125
7,599620169271.1362,1780933336475.913,-204,24,599620168901.9055,4115.486572265625
7,599620169271.1362,1780933336475.917,93,25,599620168909.5978,4123.1788330078125
7,599620169271.1362,1780933336475.92,31,26,599620168917.29,4130.87109375
7,599620169271.1362,1780933336475.923,6,27,599620168924.9824,4138.5634765625
7,599620169271.1362,1780933336475.926,90,28,599620168932.6747,4146.2557373046875
7,599620169271.1362,1780933336475.93,97,29,599620168940.367,4153.947998046875
7,599620169271.1362,1780933336475.933,86,30,599620168948.0593,4161.640380859375
7,599620169271.1362,1780933336475.936,106,31,599620168955.7516,4169.3326416015625
7,599620169271.1362,1780933336475.939,79,32,599620168963.444,4177.0250244140625
7,599620169271.1362,1780933336475.942,52,33,599620168971.1362,4184.71728515625
7,599620169271.1362,1780933336475.946,95,34,599620168978.8285,4192.4095458984375
7,599620169271.1362,1780933336475.949,131,35,599620168986.5209,4200.1019287109375
7,599620169271.1362,1780933336475.9531,136,36,599620168994.2131,4207.794189453125
7,599620169271.1362,1780933336475.956,154,37,599620169001.9055,4215.486572265625
7,599620169271.1362,1780933336475.959,168,38,599620169009.5978,4223.1788330078125
7,599620169271.1362,1780933336475.962,175,39,599620169017.29,4230.87109375
7,599620169271.1362,1780933336475.966,186,40,599620169024.9824,4238.5634765625
7,599620169271.1362,1780933336475.969,188,41,599620169032.6747,4246.2557373046875
7,599620169271.1362,1780933336475.98,193,42,599620169040.367,4253.947998046875
7,599620169271.1362,1780933336475.983,213,43,599620169048.0593,4261.640380859375
7,599620169271.1362,1780933336475.986,225,44,599620169055.7516,4269.3326416015625
7,599620169271.1362,1780933336475.99,218,45,599620169063.444,4277.0250244140625
7,599620169271.1362,1780933336475.993,206,46,599620169071.1362,4284.71728515625
7,599620169271.1362,1780933336475.996,232,47,599620169078.8285,4292.4095458984375
7,599620169271.1362,1780933336475.999,279,48,599620169086.5209,4300.1019287109375
7,599620169271.1362,1780933336476.002,309,49,599620169094.2131,4307.794189453125
7,599620169271.1362,1780933336476.0051,329,50,599620169101.9055,4315.486572265625
7,599620169271.1362,1780933336476.008,368,51,599620169109.5978,4323.1788330078125
7,599620169271.1362,1780933336476.011,407,52,599620169117.29,4330.87109375
7,599620169271.1362,1780933336476.0361,425,53,599620169124.9824,4338.5634765625
7,599620169271.1362,1780933336476.0388,411,54,599620169132.6747,4346.2557373046875
7,599620169271.1362,1780933336476.042,352,55,599620169140.367,4353.947998046875
7,599620169271.1362,1780933336476.045,261,56,599620169148.0593,4361.640380859375
7,599620169271.1362,1780933336476.048,202,57,599620169155.7516,4369.3326416015625
7,599620169271.1362,1780933336476.051,172,58,599620169163.444,4377.0250244140625
7,599620169271.1362,1780933336476.0662,125,59,599620169171.1362,4384.71728515625
7,599620169271.1362,1780933336476.0798,81,60,599620169178.8285,4392.4095458984375
7,599620169271.1362,1780933336476.084,59,61,599620169186.5209,4400.1019287109375
7,599620169271.1362,1780933336476.0881,38,62,599620169194.2131,4407.794189453125
7,599620169271.1362,1780933336476.0908,25,63,599620169201.9055,4415.486572265625
7,599620169271.1362,1780933336476.095,31,64,599620169209.5978,4423.1788330078125
7,599620169271.1362,1780933336476.0981,25,65,599620169217.29,4430.87109375
7,599620169271.1362,1780933336476.1008,-4,66,599620169224.9824,4438.5634765625
7,599620169271.1362,1780933336476.105,-18,67,599620169232.6747,4446.2557373046875
7,599620169271.1362,1780933336476.1082,4,68,599620169240.367,4453.947998046875
7,599620169271.1362,1780933336476.1401,22,69,599620169248.0593,4461.640380859375
7,599620169271.1362,1780933336476.144,29,70,599620169255.7516,4469.3326416015625
7,599620169271.1362,1780933336476.147,43,71,599620169263.444,4477.0250244140625
7,599620169271.1362,1780933336476.1501,50,72,599620169271.1362,4484.71728515625
8,599620169832.6826,1780933337014.5928,47,0,599620169278.8364,4492.41748046875
8,599620169832.6826,1780933337014.602,47,1,599620169286.5288,4500.10986328125
8,599620169832.6826,1780933337014.606,59,2,599620169294.2211,4507.8021240234375
8,599620169832.6826,1780933337014.608,81,3,599620169301.9133,4515.494384765625
8,599620169832.6826,1780933337014.611,100,4,599620169309.6057,4523.186767578125
8,599620169832.6826,1780933337014.614,93,5,599620169317.298,4530.8790283203125
8,599620169832.6826,1780933337014.616,72,6,599620169324.9904,4538.5714111328125
8,599620169832.6826,1780933337014.6191,65,7,599620169332.6826,4546.263671875
8,599620169832.6826,1780933337014.621,79,8,599620169340.3749,4553.9559326171875
8,599620169832.6826,1780933337014.626,97,9,599620169348.0673,4561.6483154296875
8,599620169832.6826,1780933337014.628,111,10,599620169355.7595,4569.340576171875
8,599620169832.6826,1780933337014.631,106,11,599620169363.4519,4577.032958984375
8,599620169832.6826,1780933337014.633,70,12,599620169371.1442,4584.7252197265625
8,599620169832.6826,1780933337014.636,13,13,599620169378.8364,4592.41748046875
8,599620169832.6826,1780933337014.638,-2,14,599620169386.5288,4600.10986328125
8,599620169832.6826,1780933337014.641,31,15,599620169394.2211,4607.8021240234375
8,599620169832.6826,1780933337014.643,61,16,599620169401.9133,4615.494384765625
8,599620169832.6826,1780933337014.645,70,17,599620169409.6057,4623.186767578125
8,599620169832.6826,1780933337014.648,77,18,599620169417.298,4630.8790283203125
8,599620169832.6826,1780933337014.6501,79,19,599620169424.9904,4638.5714111328125
8,599620169832.6826,1780933337014.652,81,20,599620169432.6826,4646.263671875
8,599620169832.6826,1780933337014.655,90,21,599620169440.3749,4653.9559326171875
8,599620169832.6826,1780933337014.657,104,22,599620169448.0673,4661.6483154296875
8,599620169832.6826,1780933337014.659,118,23,599620169455.7595,4669.340576171875
8,599620169832.6826,1780933337014.662,125,24,599620169463.4519,4677.032958984375
8,599620169832.6826,1780933337014.6638,131,25,599620169471.1442,4684.7252197265625
8,599620169832.6826,1780933337014.667,138,26,599620169478.8364,4692.41748046875
8,599620169832.6826,1780933337014.669,147,27,599620169486.5288,4700.10986328125
8,599620169832.6826,1780933337014.672,143,28,599620169494.2211,4707.8021240234375
8,599620169832.6826,1780933337014.6738,113,29,599620169501.9133,4715.494384765625
8,599620169832.6826,1780933337014.676,100,30,599620169509.6057,4723.186767578125
8,599620169832.6826,1780933337014.678,116,31,599620169517.298,4730.8790283203125
8,599620169832.6826,1780933337014.6812,120,32,599620169524.9904,4738.5714111328125
8,599620169832.6826,1780933337014.683,120,33,599620169532.6826,4746.263671875
8,599620169832.6826,1780933337014.6848,116,34,599620169540.3749,4753.9559326171875
8,599620169832.6826,1780933337014.688,86,35,599620169548.0673,4761.6483154296875
8,599620169832.6826,1780933337014.69,56,36,599620169555.7595,4769.340576171875
8,599620169832.6826,1780933337014.693,52,37,599620169563.4519,4777.032958984375
8,599620169832.6826,1780933337014.6948,63,38,599620169571.1442,4784.7252197265625
8,599620169832.6826,1780933337014.697,72,39,599620169578.8364,4792.41748046875
8,599620169832.6826,1780933337014.7,68,40,599620169586.5288,4800.10986328125
8,599620169832.6826,1780933337014.7021,56,41,599620169594.2211,4807.8021240234375
8,599620169832.6826,1780933337014.704,61,42,599620169601.9133,4815.494384765625
8,599620169832.6826,1780933337014.7058,79,43,599620169609.6057,4823.186767578125
8,599620169832.6826,1780933337014.709,97,44,599620169617.298,4830.8790283203125
8,599620169832.6826,1780933337014.711,104,45,599620169624.9904,4838.5714111328125
8,599620169832.6826,1780933337014.7131,104,46,599620169632.6826,4846.263671875
8,599620169832.6826,1780933337014.7158,106,47,599620169640.3749,4853.9559326171875
8,599620169832.6826,1780933337014.718,118,48,599620169648.0673,4861.6483154296875
8,599620169832.6826,1780933337014.721,131,49,599620169655.7595,4869.340576171875
8,599620169832.6826,1780933337014.7231,141,50,599620169663.4519,4877.032958984375
8,599620169832.6826,1780933337014.7249,145,51,599620169671.1442,4884.7252197265625
8,599620169832.6826,1780933337014.728,131,52,599620169678.8364,4892.41748046875
8,599620169832.6826,1780933337014.73,79,53,599620169686.5288,4900.10986328125
8,599620169832.6826,1780933337014.739,36,54,599620169694.2211,4907.8021240234375
8,599620169832.6826,1780933337014.741,122,55,599620169701.9133,4915.494384765625
8,599620169832.6826,1780933337014.7441,434,56,599620169709.6057,4923.186767578125
8,599620169832.6826,1780933337014.7458,746,57,599620169717.298,4930.8790283203125
8,599620169832.6826,1780933337014.749,525,58,599620169724.9904,4938.5714111328125
8,599620169832.6826,1780933337014.751,-172,59,599620169732.6826,4946.263671875
8,599620169832.6826,1780933337014.7532,-482,60,599620169740.3749,4953.9559326171875
8,599620169832.6826,1780933337014.7559,-136,61,599620169748.0673,4961.6483154296875
8,599620169832.6826,1780933337014.758,159,62,599620169755.7595,4969.340576171875
8,599620169832.6826,1780933337014.76,129,63,599620169763.4519,4977.032958984375
8,599620169832.6826,1780933337014.7632,102,64,599620169771.1442,4984.7252197265625
8,599620169832.6826,1780933337014.7651,147,65,599620169778.8364,4992.41748046875
8,599620169832.6826,1780933337014.7668,156,66,599620169786.5288,5000.10986328125
8,599620169832.6826,1780933337014.77,161,67,599620169794.2211,5007.8021240234375
8,599620169832.6826,1780933337014.772,184,68,599620169801.9133,5015.494384765625
8,599620169832.6826,1780933337014.7742,202,69,599620169809.6057,5023.186767578125
8,599620169832.6826,1780933337014.7769,211,70,599620169817.298,5030.8790283203125
8,599620169832.6826,1780933337014.779,216,71,599620169824.9904,5038.5714111328125
8,599620169832.6826,1780933337014.781,225,72,599620169832.6826,5046.263671875
9,599620170394.2291,1780933337556.01,227,0,599620169840.3829,5053.9639892578125
9,599620170394.2291,1780933337556.018,204,1,599620169848.0753,5061.6563720703125
9,599620170394.2291,1780933337556.022,170,2,599620169855.7676,5069.3486328125
9,599620170394.2291,1780933337556.026,156,3,599620169863.4598,5077.0408935546875
9,599620170394.2291,1780933337556.031,163,4,599620169871.1522,5084.7332763671875
9,599620170394.2291,1780933337556.0352,188,5,599620169878.8445,5092.425537109375
9,599620170394.2291,1780933337556.0378,213,6,599620169886.5369,5100.117919921875
9,599620170394.2291,1780933337556.041,229,7,599620169894.2291,5107.8101806640625
9,599620170394.2291,1780933337556.0452,247,8,599620169901.9214,5115.50244140625
9,599620170394.2291,1780933337556.0479,254,9,599620169909.6138,5123.19482421875
9,599620170394.2291,1780933337556.051,270,10,599620169917.306,5130.8870849609375
9,599620170394.2291,1780933337556.0542,313,11,599620169924.9984,5138.5794677734375
9,599620170394.2291,1780933337556.057,352,12,599620169932.6907,5146.271728515625
9,599620170394.2291,1780933337556.061,384,13,599620169940.3829,5153.9639892578125
9,599620170394.2291,1780933337556.064,418,14,599620169948.0753,5161.6563720703125
9,599620170394.2291,1780933337556.067,438,15,599620169955.7676,5169.3486328125
9,599620170394.2291,1780933337556.071,466,16,599620169963.4598,5177.0408935546875
9,599620170394.2291,1780933337556.074,491,17,599620169971.1522,5184.7332763671875
9,599620170394.2291,1780933337556.077,464,18,599620169978.8445,5192.425537109375
9,599620170394.2291,1780933337556.081,411,19,599620169986.5369,5200.117919921875
9,599620170394.2291,1780933337556.084,373,20,599620169994.2291,5207.8101806640625
9,599620170394.2291,1780933337556.087,311,21,599620170001.9214,5215.50244140625
9,599620170394.2291,1780933337556.09,234,22,599620170009.6138,5223.19482421875
9,599620170394.2291,1780933337556.1099,163,23,599620170017.306,5230.8870849609375
9,599620170394.2291,1780933337556.114,106,24,599620170024.9984,5238.5794677734375
9,599620170394.2291,1780933337556.118,77,25,599620170032.6907,5246.271728515625
9,599620170394.2291,1780933337556.121,59,26,599620170040.3829,5253.9639892578125
9,599620170394.2291,1780933337556.125,43,27,599620170048.0753,5261.6563720703125
9,599620170394.2291,1780933337556.128,52,28,599620170055.7676,5269.3486328125
9,599620170394.2291,1780933337556.1309,68,29,599620170063.4598,5277.0408935546875
9,599620170394.2291,1780933337556.134,65,30,599620170071.1522,5284.7332763671875
9,599620170394.2291,1780933337556.138,61,31,599620170078.8445,5292.425537109375
9,599620170394.2291,1780933337556.1409,45,32,599620170086.5369,5300.117919921875
9,599620170394.2291,1780933337556.144,34,33,599620170094.2291,5307.8101806640625
9,599620170394.2291,1780933337556.1472,59,34,599620170101.9214,5315.50244140625
9,599620170394.2291,1780933337556.15,84,35,599620170109.6138,5323.19482421875
9,599620170394.2291,1780933337556.153,84,36,599620170117.306,5330.8870849609375
9,599620170394.2291,1780933337556.155,93,37,599620170124.9984,5338.5794677734375
9,599620170394.2291,1780933337556.158,106,38,599620170132.6907,5346.271728515625
9,599620170394.2291,1780933337556.161,109,39,599620170140.3829,5353.9639892578125
9,599620170394.2291,1780933337556.164,116,40,599620170148.0753,5361.6563720703125
9,599620170394.2291,1780933337556.166,127,41,599620170155.7676,5369.3486328125
9,599620170394.2291,1780933337556.169,109,42,599620170163.4598,5377.0408935546875
9,599620170394.2291,1780933337556.1719,63,43,599620170171.1522,5384.7332763671875
9,599620170394.2291,1780933337556.174,50,44,599620170178.8445,5392.425537109375
9,599620170394.2291,1780933337556.179,68,45,599620170186.5369,5400.117919921875
9,599620170394.2291,1780933337556.182,77,46,599620170194.2291,5407.8101806640625
9,599620170394.2291,1780933337556.184,88,47,599620170201.9214,5415.50244140625
9,599620170394.2291,1780933337556.187,102,48,599620170209.6138,5423.19482421875
9,599620170394.2291,1780933337556.189,106,49,599620170217.306,5430.8870849609375
9,599620170394.2291,1780933337556.192,104,50,599620170224.9984,5438.5794677734375
9,599620170394.2291,1780933337556.195,109,51,599620170232.6907,5446.271728515625
9,599620170394.2291,1780933337556.197,125,52,599620170240.3829,5453.9639892578125
9,599620170394.2291,1780933337556.2,138,53,599620170248.0753,5461.6563720703125
9,599620170394.2291,1780933337556.202,127,54,599620170255.7676,5469.3486328125
9,599620170394.2291,1780933337556.205,95,55,599620170263.4598,5477.0408935546875
9,599620170394.2291,1780933337556.207,75,56,599620170271.1522,5484.7332763671875
9,599620170394.2291,1780933337556.21,84,57,599620170278.8445,5492.425537109375
9,599620170394.2291,1780933337556.212,113,58,599620170286.5369,5500.117919921875
9,599620170394.2291,1780933337556.215,143,59,599620170294.2291,5507.8101806640625
9,599620170394.2291,1780933337556.217,150,60,599620170301.9214,5515.50244140625
9,599620170394.2291,1780933337556.22,127,61,599620170309.6138,5523.19482421875
9,599620170394.2291,1780933337556.222,113,62,599620170317.306,5530.8870849609375
9,599620170394.2291,1780933337556.225,100,63,599620170324.9984,5538.5794677734375
9,599620170394.2291,1780933337556.227,65,64,599620170332.6907,5546.271728515625
9,599620170394.2291,1780933337556.23,65,65,599620170340.3829,5553.9639892578125
9,599620170394.2291,1780933337556.233,84,66,599620170348.0753,5561.6563720703125
9,599620170394.2291,1780933337556.235,77,67,599620170355.7676,5569.3486328125
9,599620170394.2291,1780933337556.238,79,68,599620170363.4598,5577.0408935546875
9,599620170394.2291,1780933337556.24,104,69,599620170371.1522,5584.7332763671875
9,599620170394.2291,1780933337556.243,129,70,599620170378.8445,5592.425537109375
9,599620170394.2291,1780933337556.246,147,71,599620170386.5369,5600.117919921875
9,599620170394.2291,1780933337556.25,170,72,599620170394.2291,5607.8101806640625
10,599620170955.7908,1780933338139.927,195,0,599620170401.9446,5615.525634765625
10,599620170955.7908,1780933338139.937,204,1,599620170409.637,5623.218017578125
10,599620170955.7908,1780933338139.94,188,2,599620170417.3292,5630.9102783203125
10,599620170955.7908,1780933338139.955,172,3,599620170425.0215,5638.6025390625
10,599620170955.7908,1780933338139.968,172,4,599620170432.7139,5646.294921875
10,599620170955.7908,1780933338139.971,159,5,599620170440.4061,5653.9871826171875
10,599620170955.7908,1780933338139.974,100,6,599620170448.0985,5661.6795654296875
10,599620170955.7908,1780933338139.977,43,7,599620170455.7908,5669.371826171875
10,599620170955.7908,1780933338139.98,38,8,599620170463.483,5677.0640869140625
10,599620170955.7908,1780933338139.982,47,9,599620170471.1754,5684.7564697265625
10,599620170955.7908,1780933338139.985,22,10,599620170478.8677,5692.44873046875
10,599620170955.7908,1780933338139.988,-11,11,599620170486.56,5700.14111328125
10,599620170955.7908,1780933338139.99,-11,12,599620170494.2523,5707.8333740234375
10,599620170955.7908,1780933338139.993,0,13,599620170501.9446,5715.525634765625
10,599620170955.7908,1780933338139.996,-6,14,599620170509.637,5723.218017578125
10,599620170955.7908,1780933338139.998,2,15,599620170517.3292,5730.9102783203125
10,599620170955.7908,1780933338140.001,22,16,599620170525.0215,5738.6025390625
10,599620170955.7908,1780933338140.004,27,17,599620170532.7139,5746.294921875
10,599620170955.7908,1780933338140.006,36,18,599620170540.4061,5753.9871826171875
10,599620170955.7908,1780933338140.009,56,19,599620170548.0985,5761.6795654296875
10,599620170955.7908,1780933338140.011,61,20,599620170555.7908,5769.371826171875
10,599620170955.7908,1780933338140.014,84,21,599620170563.483,5777.0640869140625
10,599620170955.7908,1780933338140.016,243,22,599620170571.1754,5784.7564697265625
10,599620170955.7908,1780933338140.019,568,23,599620170578.8677,5792.44873046875
10,599620170955.7908,1780933338140.021,723,24,599620170586.56,5800.14111328125
10,599620170955.7908,1780933338140.024,293,25,599620170594.2523,5807.8333740234375
10,599620170955.7908,1780933338140.027,-348,26,599620170601.9446,5815.525634765625
10,599620170955.7908,1780933338140.029,-404,27,599620170609.637,5823.218017578125
10,599620170955.7908,1780933338140.032,-11,28,599620170617.3292,5830.9102783203125
10,599620170955.7908,1780933338140.035,150,29,599620170625.0215,5838.6025390625
10,599620170955.7908,1780933338140.037,59,30,599620170632.7139,5846.294921875
10,599620170955.7908,1780933338140.047,40,31,599620170640.4061,5853.9871826171875
10,599620170955.7908,1780933338140.05,81,32,599620170648.0985,5861.6795654296875
10,599620170955.7908,1780933338140.052,86,33,599620170655.7908,5869.371826171875
10,599620170955.7908,1780933338140.055,100,34,599620170663.483,5877.0640869140625
10,599620170955.7908,1780933338140.0571,118,35,599620170671.1754,5884.7564697265625
10,599620170955.7908,1780933338140.06,116,36,599620170678.8677,5892.44873046875
10,599620170955.7908,1780933338140.062,125,37,599620170686.56,5900.14111328125
10,599620170955.7908,1780933338140.065,152,38,599620170694.2523,5907.8333740234375
10,599620170955.7908,1780933338140.068,170,39,599620170701.9446,5915.525634765625
10,599620170955.7908,1780933338140.07,177,40,599620170709.637,5923.218017578125
10,599620170955.7908,1780933338140.073,186,41,599620170717.3292,5930.9102783203125
10,599620170955.7908,1780933338140.075,191,42,599620170725.0215,5938.6025390625
10,599620170955.7908,1780933338140.0781,200,43,599620170732.7139,5946.294921875
10,599620170955.7908,1780933338140.08,220,44,599620170740.4061,5953.9871826171875
10,599620170955.7908,1780933338140.083,234,45,599620170748.0985,5961.6795654296875
10,599620170955.7908,1780933338140.085,227,46,599620170755.7908,5969.371826171875
10,599620170955.7908,1780933338140.0881,220,47,599620170763.483,5977.0640869140625
10,599620170955.7908,1780933338140.09,234,48,599620170771.1754,5984.7564697265625
10,599620170955.7908,1780933338140.093,266,49,599620170778.8677,5992.44873046875
10,599620170955.7908,1780933338140.095,293,50,599620170786.56,6000.14111328125
10,599620170955.7908,1780933338140.0981,307,51,599620170794.2523,6007.8333740234375
10,599620170955.7908,1780933338140.1,295,52,599620170801.9446,6015.525634765625
10,599620170955.7908,1780933338140.103,284,53,599620170809.637,6023.218017578125
10,599620170955.7908,1780933338140.105,300,54,599620170817.3292,6030.9102783203125
10,599620170955.7908,1780933338140.1082,341,55,599620170825.0215,6038.6025390625
10,599620170955.7908,1780933338140.166,368,56,599620170832.7139,6046.294921875
10,599620170955.7908,1780933338140.172,377,57,599620170840.4061,6053.9871826171875
10,599620170955.7908,1780933338140.175,368,58,599620170848.0985,6061.6795654296875
10,599620170955.7908,1780933338140.178,329,59,599620170855.7908,6069.371826171875
10,599620170955.7908,1780933338140.1812,277,60,599620170863.483,6077.0640869140625
10,599620170955.7908,1780933338140.1829,232,61,599620170871.1754,6084.7564697265625
10,599620170955.7908,1780933338140.186,195,62,599620170878.8677,6092.44873046875
10,599620170955.7908,1780933338140.188,159,63,599620170886.56,6100.14111328125
10,599620170955.7908,1780933338140.1912,120,64,599620170894.2523,6107.8333740234375
10,599620170955.7908,1780933338140.1938,90,65,599620170901.9446,6115.525634765625
10,599620170955.7908,1780933338140.196,84,66,599620170909.637,6123.218017578125
10,599620170955.7908,1780933338140.199,90,67,599620170917.3292,6130.9102783203125
10,599620170955.7908,1780933338140.2012,100,68,599620170925.0215,6138.6025390625
10,599620170955.7908,1780933338140.2039,116,69,599620170932.7139,6146.294921875
10,599620170955.7908,1780933338140.206,125,70,599620170940.4061,6153.9871826171875
10,599620170955.7908,1780933338140.209,125,71,599620170948.0985,6161.6795654296875
10,599620170955.7908,1780933338140.2122,104,72,599620170955.7908,6169.371826171875
11,599620171517.3525,1780933338680.167,93,0,599620170963.5063,6177.08740234375
11,599620171517.3525,1780933338680.181,109,1,599620170971.1987,6184.77978515625
11,599620171517.3525,1780933338680.1838,111,2,599620170978.891,6192.4720458984375
11,599620171517.3525,1780933338680.187,84,3,599620170986.5833,6200.164306640625
11,599620171517.3525,1780933338680.195,45,4,599620170994.2756,6207.856689453125
11,599620171517.3525,1780933338680.198,25,5,599620171001.9679,6215.5489501953125
11,599620171517.3525,1780933338680.2012,31,6,599620171009.6603,6223.2413330078125
11,599620171517.3525,1780933338680.203,45,7,599620171017.3525,6230.93359375
11,599620171517.3525,1780933338680.206,47,8,599620171025.0448,6238.6258544921875
11,599620171517.3525,1780933338680.209,29,9,599620171032.7372,6246.3182373046875
11,599620171517.3525,1780933338680.2112,11,10,599620171040.4294,6254.010498046875
11,599620171517.3525,1780933338680.2139,27,11,599620171048.1218,6261.702880859375
11,599620171517.3525,1780933338680.216,52,12,599620171055.8141,6269.3951416015625
11,599620171517.3525,1780933338680.219,61,13,599620171063.5063,6277.08740234375
11,599620171517.3525,1780933338680.2212,65,14,599620171071.1987,6284.77978515625
11,599620171517.3525,1780933338680.2239,65,15,599620171078.891,6292.4720458984375
11,599620171517.3525,1780933338680.227,61,16,599620171086.5833,6300.164306640625
11,599620171517.3525,1780933338680.229,65,17,599620171094.2756,6307.856689453125
11,599620171517.3525,1780933338680.232,77,18,599620171101.9679,6315.5489501953125
11,599620171517.3525,1780933338680.234,79,19,599620171109.6603,6323.2413330078125
11,599620171517.3525,1780933338680.237,54,20,599620171117.3525,6330.93359375
11,599620171517.3525,1780933338680.239,27,21,599620171125.0448,6338.6258544921875
11,599620171517.3525,1780933338680.242,22,22,599620171132.7372,6346.3182373046875
11,599620171517.3525,1780933338680.244,31,23,599620171140.4294,6354.010498046875
11,599620171517.3525,1780933338680.247,47,24,599620171148.1218,6361.702880859375
11,599620171517.3525,1780933338680.249,68,25,599620171155.8141,6369.3951416015625
11,599620171517.3525,1780933338680.252,70,26,599620171163.5063,6377.08740234375
11,599620171517.3525,1780933338680.254,43,27,599620171171.1987,6384.77978515625
11,599620171517.3525,1780933338680.257,36,28,599620171178.891,6392.4720458984375
11,599620171517.3525,1780933338680.259,63,29,599620171186.5833,6400.164306640625
11,599620171517.3525,1780933338680.2622,90,30,599620171194.2756,6407.856689453125
11,599620171517.3525,1780933338680.264,102,31,599620171201.9679,6415.5489501953125
11,599620171517.3525,1780933338680.267,111,32,599620171209.6603,6423.2413330078125
11,599620171517.3525,1780933338680.269,109,33,599620171217.3525,6430.93359375
11,599620171517.3525,1780933338680.2722,104,34,599620171225.0448,6438.6258544921875
11,599620171517.3525,1780933338680.275,122,35,599620171232.7372,6446.3182373046875
11,599620171517.3525,1780933338680.277,147,36,599620171240.4294,6454.010498046875
11,599620171517.3525,1780933338680.28,152,37,599620171248.1218,6461.702880859375
11,599620171517.3525,1780933338680.2822,159,38,599620171255.8141,6469.3951416015625
11,599620171517.3525,1780933338680.285,188,39,599620171263.5063,6477.08740234375
11,599620171517.3525,1780933338680.288,184,40,599620171271.1987,6484.77978515625
11,599620171517.3525,1780933338680.29,136,41,599620171278.891,6492.4720458984375
11,599620171517.3525,1780933338680.293,116,42,599620171286.5833,6500.164306640625
11,599620171517.3525,1780933338680.295,125,43,599620171294.2756,6507.856689453125
11,599620171517.3525,1780933338680.298,120,44,599620171301.9679,6515.5489501953125
11,599620171517.3525,1780933338680.3,102,45,599620171309.6603,6523.2413330078125
11,599620171517.3525,1780933338680.303,84,46,599620171317.3525,6530.93359375
11,599620171517.3525,1780933338680.305,79,47,599620171325.0448,6538.6258544921875
11,599620171517.3525,1780933338680.308,86,48,599620171332.7372,6546.3182373046875
11,599620171517.3525,1780933338680.311,93,49,599620171340.4294,6554.010498046875
11,599620171517.3525,1780933338680.313,86,50,599620171348.1218,6561.702880859375
11,599620171517.3525,1780933338680.316,75,51,599620171355.8141,6569.3951416015625
11,599620171517.3525,1780933338680.318,79,52,599620171363.5063,6577.08740234375
11,599620171517.3525,1780933338680.322,93,53,599620171371.1987,6584.77978515625
11,599620171517.3525,1780933338680.325,113,54,599620171378.891,6592.4720458984375
11,599620171517.3525,1780933338680.327,129,55,599620171386.5833,6600.164306640625
11,599620171517.3525,1780933338680.33,129,56,599620171394.2756,6607.856689453125
11,599620171517.3525,1780933338680.332,136,57,599620171401.9679,6615.5489501953125
11,599620171517.3525,1780933338680.338,150,58,599620171409.6603,6623.2413330078125
11,599620171517.3525,1780933338680.341,152,59,599620171417.3525,6630.93359375
11,599620171517.3525,1780933338680.344,159,60,599620171425.0448,6638.6258544921875
11,599620171517.3525,1780933338680.346,261,61,599620171432.7372,6646.3182373046875
11,599620171517.3525,1780933338680.349,550,62,599620171440.4294,6654.010498046875
11,599620171517.3525,1780933338680.351,748,63,599620171448.1218,6661.702880859375
11,599620171517.3525,1780933338680.354,334,64,599620171455.8141,6669.3951416015625
11,599620171517.3525,1780933338680.356,-350,65,599620171463.5063,6677.08740234375
11,599620171517.3525,1780933338680.359,-441,66,599620171471.1987,6684.77978515625
11,599620171517.3525,1780933338680.362,-61,67,599620171478.891,6692.4720458984375
11,599620171517.3525,1780933338680.364,145,68,599620171486.5833,6700.164306640625
11,599620171517.3525,1780933338680.367,129,69,599620171494.2756,6707.856689453125
11,599620171517.3525,1780933338680.369,125,70,599620171501.9679,6715.5489501953125
11,599620171517.3525,1780933338680.372,152,71,599620171509.6603,6723.2413330078125
11,599620171517.3525,1780933338680.374,156,72,599620171517.3525,6730.93359375
12,599620172078.9143,1780933339263.408,143,0,599620171525.0681,6738.649169921875
12,599620172078.9143,1780933339263.419,122,1,599620171532.7605,6746.341552734375
12,599620172078.9143,1780933339263.422,120,2,599620171540.4528,6754.0338134765625
12,599620172078.9143,1780933339263.425,134,3,599620171548.145,6761.72607421875
12,599620172078.9143,1780933339263.428,150,4,599620171555.8374,6769.41845703125
12,599620172078.9143,1780933339263.4312,161,5,599620171563.5297,6777.1107177734375
12,599620172078.9143,1780933339263.4329,154,6,599620171571.222,6784.8031005859375
12,599620172078.9143,1780933339263.436,129,7,599620171578.9143,6792.495361328125
12,599620172078.9143,1780933339263.439,102,8,599620171586.6066,6800.1876220703125
12,599620172078.9143,1780933339263.4429,84,9,599620171594.299,6807.8800048828125
12,599620172078.9143,1780933339263.446,102,10,599620171601.9912,6815.572265625
12,599620172078.9143,1780933339263.448,131,11,599620171609.6836,6823.2646484375
12,599620172078.9143,1780933339263.4548,145,12,599620171617.3759,6830.9569091796875
12,599620172078.9143,1780933339263.458,163,13,599620171625.0681,6838.649169921875
12,599620172078.9143,1780933339263.46,197,14,599620171632.7605,6846.341552734375
12,599620172078.9143,1780933339263.4631,225,15,599620171640.4528,6854.0338134765625
12,599620172078.9143,1780933339263.4658,254,16,599620171648.145,6861.72607421875
12,599620172078.9143,1780933339263.468,300,17,599620171655.8374,6869.41845703125
12,599620172078.9143,1780933339263.471,338,18,599620171663.5297,6877.1107177734375
12,599620172078.9143,1780933339263.4731,363,19,599620171671.222,6884.8031005859375
12,599620172078.9143,1780933339263.4758,391,20,599620171678.9143,6892.495361328125
12,599620172078.9143,1780933339263.479,404,21,599620171686.6066,6900.1876220703125
12,599620172078.9143,1780933339263.481,409,22,599620171694.299,6907.8800048828125
12,599620172078.9143,1780933339263.484,411,23,599620171701.9912,6915.572265625
12,599620172078.9143,1780933339263.4858,382,24,599620171709.6836,6923.2646484375
12,599620172078.9143,1780933339263.489,334,25,599620171717.3759,6930.9569091796875
12,599620172078.9143,1780933339263.491,291,26,599620171725.0681,6938.649169921875
12,599620172078.9143,1780933339263.494,234,27,599620171732.7605,6946.341552734375
12,599620172078.9143,1780933339263.4958,154,28,599620171740.4528,6954.0338134765625
12,599620172078.9143,1780933339263.499,88,29,599620171748.145,6961.72607421875
12,599620172078.9143,1780933339263.501,61,30,599620171755.8374,6969.41845703125
12,599620172078.9143,1780933339263.504,54,31,599620171763.5297,6977.1107177734375
12,599620172078.9143,1780933339263.5068,43,32,599620171771.222,6984.8031005859375
12,599620172078.9143,1780933339263.509,31,33,599620171778.9143,6992.495361328125
12,599620172078.9143,1780933339263.512,34,34,599620171786.6066,7000.1876220703125
12,599620172078.9143,1780933339263.5142,45,35,599620171794.299,7007.8800048828125
12,599620172078.9143,1780933339263.5168,52,36,599620171801.9912,7015.572265625
12,599620172078.9143,1780933339263.519,63,37,599620171809.6836,7023.2646484375
12,599620172078.9143,1780933339263.522,79,38,599620171817.3759,7030.9569091796875
12,599620172078.9143,1780933339263.5242,84,39,599620171825.0681,7038.649169921875
12,599620172078.9143,1780933339263.5269,81,40,599620171832.7605,7046.341552734375
12,599620172078.9143,1780933339263.529,90,41,599620171840.4528,7054.0338134765625
12,599620172078.9143,1780933339263.532,104,42,599620171848.145,7061.72607421875
12,599620172078.9143,1780933339263.5342,116,43,599620171855.8374,7069.41845703125
12,599620172078.9143,1780933339263.5369,120,44,599620171863.5297,7077.1107177734375
12,599620172078.9143,1780933339263.54,120,45,599620171871.222,7084.8031005859375
12,599620172078.9143,1780933339263.542,125,46,599620171878.9143,7092.495361328125
12,599620172078.9143,1780933339263.545,116,47,599620171886.6066,7100.1876220703125
12,599620172078.9143,1780933339263.5469,81,48,599620171894.299,7107.8800048828125
12,599620172078.9143,1780933339263.55,52,49,599620171901.9912,7115.572265625
12,599620172078.9143,1780933339263.552,52,50,599620171909.6836,7123.2646484375
12,599620172078.9143,1780933339263.555,63,51,599620171917.3759,7130.9569091796875
12,599620172078.9143,1780933339263.5579,63,52,599620171925.0681,7138.649169921875
12,599620172078.9143,1780933339263.56,68,53,599620171932.7605,7146.341552734375
12,599620172078.9143,1780933339263.563,86,54,599620171940.4528,7154.0338134765625
12,599620172078.9143,1780933339263.565,100,55,599620171948.145,7161.72607421875
12,599620172078.9143,1780933339263.5679,106,56,599620171955.8374,7169.41845703125
12,599620172078.9143,1780933339263.57,113,57,599620171963.5297,7177.1107177734375
12,599620172078.9143,1780933339263.5752,122,58,599620171971.222,7184.8031005859375
12,599620172078.9143,1780933339263.577,127,59,599620171978.9143,7192.495361328125
12,599620172078.9143,1780933339263.58,120,60,599620171986.6066,7200.1876220703125
12,599620172078.9143,1780933339263.582,116,61,599620171994.299,7207.8800048828125
12,599620172078.9143,1780933339263.5852,125,62,599620172001.9912,7215.572265625
12,599620172078.9143,1780933339263.587,131,63,599620172009.6836,7223.2646484375
12,599620172078.9143,1780933339263.59,129,64,599620172017.3759,7230.9569091796875
12,599620172078.9143,1780933339263.592,129,65,599620172025.0681,7238.649169921875
12,599620172078.9143,1780933339263.5952,136,66,599620172032.7605,7246.341552734375
12,599620172078.9143,1780933339263.597,145,67,599620172040.4528,7254.0338134765625
12,599620172078.9143,1780933339263.6,129,68,599620172048.145,7261.72607421875
12,599620172078.9143,1780933339263.603,75,69,599620172055.8374,7269.41845703125
12,599620172078.9143,1780933339263.6052,31,70,599620172063.5297,7277.1107177734375
12,599620172078.9143,1780933339263.608,29,71,599620172071.222,7284.8031005859375
12,599620172078.9143,1780933339263.6099,38,72,599620172078.9143,7292.495361328125
13,599620172640.476,1780933339849.618,45,0,599620172086.6298,7300.2108154296875
13,599620172640.476,1780933339849.629,54,1,599620172094.3221,7307.9031982421875
13,599620172640.476,1780933339849.632,59,2,599620172102.0144,7315.595458984375
13,599620172640.476,1780933339849.6348,61,3,599620172109.7067,7323.2877197265625
13,599620172640.476,1780933339849.638,68,4,599620172117.399,7330.9801025390625
13,599620172640.476,1780933339849.641,97,5,599620172125.0913,7338.67236328125
13,599620172640.476,1780933339849.644,134,6,599620172132.7837,7346.36474609375
13,599620172640.476,1780933339849.647,154,7,599620172140.476,7354.0570068359375
13,599620172640.476,1780933339849.65,177,8,599620172148.1682,7361.749267578125
13,599620172640.476,1780933339849.653,193,9,599620172155.8606,7369.441650390625
13,599620172640.476,1780933339849.657,172,10,599620172163.5529,7377.1339111328125
13,599620172640.476,1780933339849.659,147,11,599620172171.2452,7384.8262939453125
13,599620172640.476,1780933339849.662,145,12,599620172178.9375,7392.5185546875
13,599620172640.476,1780933339849.665,145,13,599620172186.6298,7400.2108154296875
13,599620172640.476,1780933339849.667,143,14,599620172194.3221,7407.9031982421875
13,599620172640.476,1780933339849.67,120,15,599620172202.0144,7415.595458984375
13,599620172640.476,1780933339849.672,56,16,599620172209.7067,7423.2877197265625
13,599620172640.476,1780933339849.675,18,17,599620172217.399,7430.9801025390625
13,599620172640.476,1780933339849.678,27,18,599620172225.0913,7438.67236328125
13,599620172640.476,1780933339849.68,22,19,599620172232.7837,7446.36474609375
13,599620172640.476,1780933339849.683,-6,20,599620172240.476,7454.0570068359375
13,599620172640.476,1780933339849.685,-22,21,599620172248.1682,7461.749267578125
13,599620172640.476,1780933339849.688,-18,22,599620172255.8606,7469.441650390625
13,599620172640.476,1780933339849.69,4,23,599620172263.5529,7477.1339111328125
13,599620172640.476,1780933339849.697,25,24,599620172271.2452,7484.8262939453125
13,599620172640.476,1780933339849.699,43,25,599620172278.9375,7492.5185546875
13,599620172640.476,1780933339849.702,52,26,599620172286.6298,7500.2108154296875
13,599620172640.476,1780933339849.705,54,27,599620172294.3221,7507.9031982421875
13,599620172640.476,1780933339849.7068,70,28,599620172302.0144,7515.595458984375
13,599620172640.476,1780933339849.7168,86,29,599620172309.7067,7523.2877197265625
13,599620172640.476,1780933339849.72,129,30,599620172317.399,7530.9801025390625
13,599620172640.476,1780933339849.722,329,31,599620172325.0913,7538.67236328125
13,599620172640.476,1780933339849.725,686,32,599620172332.7837,7546.36474609375
13,599620172640.476,1780933339849.728,791,33,599620172340.476,7554.0570068359375
13,599620172640.476,1780933339849.73,266,34,599620172348.1682,7561.749267578125
13,599620172640.476,1780933339849.7332,-377,35,599620172355.8606,7569.441650390625
13,599620172640.476,1780933339849.735,-382,36,599620172363.5529,7577.1339111328125
13,599620172640.476,1780933339849.7378,-15,37,599620172371.2452,7584.8262939453125
13,599620172640.476,1780933339849.741,90,38,599620172378.9375,7592.5185546875
13,599620172640.476,1780933339849.743,38,39,599620172386.6298,7600.2108154296875
13,599620172640.476,1780933339849.746,93,40,599620172394.3221,7607.9031982421875
13,599620172640.476,1780933339849.767,136,41,599620172402.0144,7615.595458984375
13,599620172640.476,1780933339849.769,109,42,599620172409.7067,7623.2877197265625
13,599620172640.476,1780933339849.772,113,43,599620172417.399,7630.9801025390625
13,599620172640.476,1780933339849.774,120,44,599620172425.0913,7638.67236328125
13,599620172640.476,1780933339849.777,97,45,599620172432.7837,7646.36474609375
13,599620172640.476,1780933339849.78,109,46,599620172440.476,7654.0570068359375
13,599620172640.476,1780933339849.782,143,47,599620172448.1682,7661.749267578125
13,599620172640.476,1780933339849.7852,150,48,599620172455.8606,7669.441650390625
13,599620172640.476,1780933339849.787,154,49,599620172463.5529,7677.1339111328125
13,599620172640.476,1780933339849.79,175,50,599620172471.2452,7684.8262939453125
13,599620172640.476,1780933339849.792,181,51,599620172478.9375,7692.5185546875
13,599620172640.476,1780933339849.7952,179,52,599620172486.6298,7700.2108154296875
13,599620172640.476,1780933339849.797,202,53,599620172494.3221,7707.9031982421875
13,599620172640.476,1780933339849.8,236,54,599620172502.0144,7715.595458984375
13,599620172640.476,1780933339849.802,257,55,599620172509.7067,7723.2877197265625
13,599620172640.476,1780933339849.8052,266,56,599620172517.399,7730.9801025390625
13,599620172640.476,1780933339849.8071,257,57,599620172525.0913,7738.67236328125
13,599620172640.476,1780933339849.8098,254,58,599620172532.7837,7746.36474609375
13,599620172640.476,1780933339849.813,288,59,599620172540.476,7754.0570068359375
13,599620172640.476,1780933339849.815,334,60,599620172548.1682,7761.749267578125
13,599620172640.476,1780933339849.8179,366,61,599620172555.8606,7769.441650390625
13,599620172640.476,1780933339849.8198,388,62,599620172563.5529,7777.1339111328125
13,599620172640.476,1780933339849.823,407,63,599620172571.2452,7784.8262939453125
13,599620172640.476,1780933339849.8262,432,64,599620172578.9375,7792.5185546875
13,599620172640.476,1780933339849.833,454,65,599620172586.6298,7800.2108154296875
13,599620172640.476,1780933339849.8362,454,66,599620172594.3221,7807.9031982421875
13,599620172640.476,1780933339849.8389,432,67,599620172602.0144,7815.595458984375
13,599620172640.476,1780933339849.841,368,68,599620172609.7067,7823.2877197265625
13,599620172640.476,1780933339849.844,293,69,599620172617.399,7830.9801025390625
13,599620172640.476,1780933339849.846,243,70,599620172625.0913,7838.67236328125
13,599620172640.476,1780933339849.8489,206,71,599620172632.7837,7846.36474609375
13,599620172640.476,1780933339849.8508,166,72,599620172640.476,7854.0570068359375
14,599620173202.0377,1780933340388.989,122,0,599620172648.1915,7861.7725830078125
14,599620173202.0377,1780933340389.004,86,1,599620172655.8839,7869.4649658203125
14,599620173202.0377,1780933340389.007,77,2,599620172663.5762,7877.1572265625
14,599620173202.0377,1780933340389.009,84,3,599620172671.2684,7884.8494873046875
14,599620173202.0377,1780933340389.0122,61,4,599620172678.9608,7892.5418701171875
14,599620173202.0377,1780933340389.014,29,5,599620172686.6531,7900.234130859375
14,599620173202.0377,1780933340389.018,31,6,599620172694.3455,7907.926513671875
14,599620173202.0377,1780933340389.021,40,7,599620172702.0377,7915.6187744140625
14,599620173202.0377,1780933340389.023,45,8,599620172709.73,7923.31103515625
14,599620173202.0377,1780933340389.026,54,9,599620172717.4224,7931.00341796875
14,599620173202.0377,1780933340389.028,45,10,599620172725.1146,7938.6956787109375
14,599620173202.0377,1780933340389.03,40,11,599620172732.807,7946.3880615234375
14,599620173202.0377,1780933340389.033,34,12,599620172740.4993,7954.080322265625
14,599620173202.0377,1780933340389.035,2,13,599620172748.1915,7961.7725830078125
14,599620173202.0377,1780933340389.038,0,14,599620172755.8839,7969.4649658203125
14,599620173202.0377,1780933340389.04,29,15,599620172763.5762,7977.1572265625
14,599620173202.0377,1780933340389.042,38,16,599620172771.2684,7984.8494873046875
14,599620173202.0377,1780933340389.045,36,17,599620172778.9608,7992.5418701171875
14,599620173202.0377,1780933340389.0469,27,18,599620172786.6531,8000.234130859375
14,599620173202.0377,1780933340389.049,4,19,599620172794.3455,8007.926513671875
14,599620173202.0377,1780933340389.052,9,20,599620172802.0377,8015.6187744140625
14,599620173202.0377,1780933340389.054,36,21,599620172809.73,8023.31103515625
14,599620173202.0377,1780933340389.056,56,22,599620172817.4224,8031.00341796875
14,599620173202.0377,1780933340389.059,68,23,599620172825.1146,8038.6956787109375
14,599620173202.0377,1780933340389.061,50,24,599620172832.807,8046.3880615234375
14,599620173202.0377,1780933340389.063,11,25,599620172840.4993,8054.080322265625
14,599620173202.0377,1780933340389.066,15,26,599620172848.1915,8061.7725830078125
14,599620173202.0377,1780933340389.0679,50,27,599620172855.8839,8069.4649658203125
14,599620173202.0377,1780933340389.07,56,28,599620172863.5762,8077.1572265625
14,599620173202.0377,1780933340389.073,61,29,599620172871.2684,8084.8494873046875
14,599620173202.0377,1780933340389.075,65,30,599620172878.9608,8092.5418701171875
14,599620173202.0377,1780933340389.077,63,31,599620172886.6531,8100.234130859375
14,599620173202.0377,1780933340389.08,77,32,599620172894.3455,8107.926513671875
14,599620173202.0377,1780933340389.082,100,33,599620172902.0377,8115.6187744140625
14,599620173202.0377,1780933340389.084,113,34,599620172909.73,8123.31103515625
14,599620173202.0377,1780933340389.087,118,35,599620172917.4224,8131.00341796875
14,599620173202.0377,1780933340389.089,113,36,599620172925.1146,8138.6956787109375
14,599620173202.0377,1780933340389.091,113,37,599620172932.807,8146.3880615234375
14,599620173202.0377,1780933340389.094,129,38,599620172940.4993,8154.080322265625
14,599620173202.0377,1780933340389.102,143,39,599620172948.1915,8161.7725830078125
14,599620173202.0377,1780933340389.104,145,40,599620172955.8839,8169.4649658203125
14,599620173202.0377,1780933340389.106,145,41,599620172963.5762,8177.1572265625
14,599620173202.0377,1780933340389.109,141,42,599620172971.2684,8184.8494873046875
14,599620173202.0377,1780933340389.111,134,43,599620172978.9608,8192.541870117188
14,599620173202.0377,1780933340389.113,118,44,599620172986.6531,8200.234130859375
14,599620173202.0377,1780933340389.116,84,45,599620172994.3455,8207.926513671875
14,599620173202.0377,1780933340389.118,68,46,599620173002.0377,8215.618774414062
14,599620173202.0377,1780933340389.12,68,47,599620173009.73,8223.31103515625
14,599620173202.0377,1780933340389.123,59,48,599620173017.4224,8231.00341796875
14,599620173202.0377,1780933340389.125,65,49,599620173025.1146,8238.695678710938
14,599620173202.0377,1780933340389.127,100,50,599620173032.807,8246.388061523438
14,599620173202.0377,1780933340389.1301,141,51,599620173040.4993,8254.080322265625
14,599620173202.0377,1780933340389.132,181,52,599620173048.1915,8261.772583007812
14,599620173202.0377,1780933340389.1348,179,53,599620173055.8839,8269.464965820312
14,599620173202.0377,1780933340389.137,143,54,599620173063.5762,8277.1572265625
14,599620173202.0377,1780933340389.139,131,55,599620173071.2684,8284.849487304688
14,599620173202.0377,1780933340389.141,145,56,599620173078.9608,8292.541870117188
14,599620173202.0377,1780933340389.144,147,57,599620173086.6531,8300.234130859375
14,599620173202.0377,1780933340389.146,127,58,599620173094.3455,8307.926513671875
14,599620173202.0377,1780933340389.148,109,59,599620173102.0377,8315.618774414062
14,599620173202.0377,1780933340389.1511,100,60,599620173109.73,8323.31103515625
14,599620173202.0377,1780933340389.153,102,61,599620173117.4224,8331.00341796875
14,599620173202.0377,1780933340389.156,111,62,599620173125.1146,8338.695678710938
14,599620173202.0377,1780933340389.158,125,63,599620173132.807,8346.388061523438
14,599620173202.0377,1780933340389.16,109,64,599620173140.4993,8354.080322265625
14,599620173202.0377,1780933340389.163,68,65,599620173148.1915,8361.772583007812
14,599620173202.0377,1780933340389.165,54,66,599620173155.8839,8369.464965820312
14,599620173202.0377,1780933340389.167,79,67,599620173163.5762,8377.1572265625
14,599620173202.0377,1780933340389.17,95,68,599620173171.2684,8384.849487304688
14,599620173202.0377,1780933340389.172,102,69,599620173178.9608,8392.541870117188
14,599620173202.0377,1780933340389.175,113,70,599620173186.6531,8400.234130859375
14,599620173202.0377,1780933340389.177,97,71,599620173194.3455,8407.926513671875
14,599620173202.0377,1780933340389.18,72,72,599620173202.0377,8415.618774414062
15,599620173763.5994,1780933340929.78,143,0,599620173209.7532,8423.334228515625
15,599620173763.5994,1780933340929.79,393,1,599620173217.4456,8431.026611328125
15,599620173763.5994,1780933340929.7942,705,2,599620173225.1378,8438.718872070312
15,599620173763.5994,1780933340929.796,614,3,599620173232.8301,8446.4111328125
15,599620173763.5994,1780933340929.799,-36,4,599620173240.5225,8454.103515625
15,599620173763.5994,1780933340929.802,-486,5,599620173248.2147,8461.795776367188
15,599620173763.5994,1780933340929.806,-236,6,599620173255.9071,8469.488159179688
15,599620173763.5994,1780933340929.8079,129,7,599620173263.5994,8477.180419921875
15,599620173763.5994,1780933340929.811,168,8,599620173271.2916,8484.872680664062
15,599620173763.5994,1780933340929.8142,122,9,599620173278.984,8492.565063476562
15,599620173763.5994,1780933340929.817,134,10,599620173286.6763,8500.25732421875
15,599620173763.5994,1780933340929.82,116,11,599620173294.3687,8507.94970703125
15,599620173763.5994,1780933340929.823,68,12,599620173302.0609,8515.641967773438
15,599620173763.5994,1780933340929.825,61,13,599620173309.7532,8523.334228515625
15,599620173763.5994,1780933340929.828,84,14,599620173317.4456,8531.026611328125
15,599620173763.5994,1780933340929.83,77,15,599620173325.1378,8538.718872070312
15,599620173763.5994,1780933340929.833,54,16,599620173332.8301,8546.4111328125
15,599620173763.5994,1780933340929.835,70,17,599620173340.5225,8554.103515625
15,599620173763.5994,1780933340929.838,93,18,599620173348.2147,8561.795776367188
15,599620173763.5994,1780933340929.84,102,19,599620173355.9071,8569.488159179688
15,599620173763.5994,1780933340929.843,122,20,599620173363.5994,8577.180419921875
15,599620173763.5994,1780933340929.846,152,21,599620173371.2916,8584.872680664062
15,599620173763.5994,1780933340929.848,166,22,599620173378.984,8592.565063476562
15,599620173763.5994,1780933340929.851,175,23,599620173386.6763,8600.25732421875
15,599620173763.5994,1780933340929.853,200,24,599620173394.3687,8607.94970703125
15,599620173763.5994,1780933340929.856,227,25,599620173402.0609,8615.641967773438
15,599620173763.5994,1780933340929.858,247,26,599620173409.7532,8623.334228515625
15,599620173763.5994,1780933340929.861,266,27,599620173417.4456,8631.026611328125
15,599620173763.5994,1780933340929.863,291,28,599620173425.1378,8638.718872070312
15,599620173763.5994,1780933340929.866,332,29,599620173432.8301,8646.4111328125
15,599620173763.5994,1780933340929.869,366,30,599620173440.5225,8654.103515625
15,599620173763.5994,1780933340929.871,393,31,599620173448.2147,8661.795776367188
15,599620173763.5994,1780933340929.874,418,32,599620173455.9071,8669.488159179688
15,599620173763.5994,1780933340929.876,429,33,599620173463.5994,8677.180419921875
15,599620173763.5994,1780933340929.879,438,34,599620173471.2916,8684.872680664062
15,599620173763.5994,1780933340929.881,448,35,599620173478.984,8692.565063476562
15,599620173763.5994,1780933340929.884,443,36,599620173486.6763,8700.25732421875
15,599620173763.5994,1780933340929.886,416,37,599620173494.3687,8707.94970703125
15,599620173763.5994,1780933340929.889,357,38,599620173502.0609,8715.641967773438
15,599620173763.5994,1780933340929.891,268,39,599620173509.7532,8723.334228515625
15,599620173763.5994,1780933340929.894,193,40,599620173517.4456,8731.026611328125
15,599620173763.5994,1780933340929.896,150,41,599620173525.1378,8738.718872070312
15,599620173763.5994,1780933340929.899,106,42,599620173532.8301,8746.4111328125
15,599620173763.5994,1780933340929.901,77,43,599620173540.5225,8754.103515625
15,599620173763.5994,1780933340929.904,72,44,599620173548.2147,8761.795776367188
15,599620173763.5994,1780933340929.906,61,45,599620173555.9071,8769.488159179688
15,599620173763.5994,1780933340929.909,52,46,599620173563.5994,8777.180419921875
15,599620173763.5994,1780933340929.911,63,47,599620173571.2916,8784.872680664062
15,599620173763.5994,1780933340929.914,75,48,599620173578.984,8792.565063476562
15,599620173763.5994,1780933340929.917,79,49,599620173586.6763,8800.25732421875
15,599620173763.5994,1780933340929.919,84,50,599620173594.3687,8807.94970703125
15,599620173763.5994,1780933340929.922,75,51,599620173602.0609,8815.641967773438
15,599620173763.5994,1780933340929.924,40,52,599620173609.7532,8823.334228515625
15,599620173763.5994,1780933340929.927,20,53,599620173617.4456,8831.026611328125
15,599620173763.5994,1780933340929.929,34,54,599620173625.1378,8838.718872070312
15,599620173763.5994,1780933340929.9321,50,55,599620173632.8301,8846.4111328125
15,599620173763.5994,1780933340929.934,47,56,599620173640.5225,8854.103515625
15,599620173763.5994,1780933340929.9368,54,57,599620173648.2147,8861.795776367188
15,599620173763.5994,1780933340929.939,77,58,599620173655.9071,8869.488159179688
15,599620173763.5994,1780933340929.942,95,59,599620173663.5994,8877.180419921875
15,599620173763.5994,1780933340929.944,97,60,599620173671.2916,8884.872680664062
15,599620173763.5994,1780933340929.9468,88,61,599620173678.984,8892.565063476562
15,599620173763.5994,1780933340929.949,68,62,599620173686.6763,8900.25732421875
15,599620173763.5994,1780933340929.952,61,63,599620173694.3687,8907.94970703125
15,599620173763.5994,1780933340929.954,68,64,599620173702.0609,8915.641967773438
15,599620173763.5994,1780933340929.957,61,65,599620173709.7532,8923.334228515625
15,599620173763.5994,1780933340929.959,52,66,599620173717.4456,8931.026611328125
15,599620173763.5994,1780933340929.962,65,67,599620173725.1378,8938.718872070312
15,599620173763.5994,1780933340929.964,72,68,599620173732.8301,8946.4111328125
15,599620173763.5994,1780933340929.967,72,69,599620173740.5225,8954.103515625
15,599620173763.5994,1780933340929.97,90,70,599620173748.2147,8961.795776367188
15,599620173763.5994,1780933340929.972,104,71,599620173755.9071,8969.488159179688
15,599620173763.5994,1780933340929.975,90,72,599620173763.5994,8977.180419921875
16,599620174325.1611,1780933341469.3179,54,0,599620173771.315,8984.89599609375
16,599620174325.1611,1780933341469.328,25,1,599620173779.0073,8992.58837890625
16,599620174325.1611,1780933341469.331,34,2,599620173786.6996,9000.280639648438
16,599620174325.1611,1780933341469.333,61,3,599620173794.3918,9007.972900390625
16,599620174325.1611,1780933341469.336,75,4,599620173802.0842,9015.665283203125
16,599620174325.1611,1780933341469.3389,77,5,599620173809.7765,9023.357543945312
16,599620174325.1611,1780933341469.341,65,6,599620173817.4689,9031.049926757812
16,599620174325.1611,1780933341469.344,36,7,599620173825.1611,9038.7421875
16,599620174325.1611,1780933341469.347,25,8,599620173832.8534,9046.434448242188
16,599620174325.1611,1780933341469.3489,54,9,599620173840.5458,9054.126831054688
16,599620174325.1611,1780933341469.352,79,10,599620173848.238,9061.819091796875
16,599620174325.1611,1780933341469.3552,75,11,599620173855.9304,9069.511474609375
16,599620174325.1611,1780933341469.357,54,12,599620173863.6227,9077.203735351562
16,599620174325.1611,1780933341469.361,31,13,599620173871.315,9084.89599609375
16,599620174325.1611,1780933341469.363,36,14,599620173879.0073,9092.58837890625
16,599620174325.1611,1780933341469.366,70,15,599620173886.6996,9100.280639648438
16,599620174325.1611,1780933341469.368,100,16,599620173894.3918,9107.972900390625
16,599620174325.1611,1780933341469.371,120,17,599620173902.0842,9115.665283203125
16,599620174325.1611,1780933341469.374,143,18,599620173909.7765,9123.357543945312
16,599620174325.1611,1780933341469.376,175,19,599620173917.4689,9131.049926757812
16,599620174325.1611,1780933341469.384,170,20,599620173925.1611,9138.7421875
16,599620174325.1611,1780933341469.386,111,21,599620173932.8534,9146.434448242188
16,599620174325.1611,1780933341469.389,77,22,599620173940.5458,9154.126831054688
16,599620174325.1611,1780933341469.391,81,23,599620173948.238,9161.819091796875
16,599620174325.1611,1780933341469.394,63,24,599620173955.9304,9169.511474609375
16,599620174325.1611,1780933341469.396,43,25,599620173963.6227,9177.203735351562
16,599620174325.1611,1780933341469.399,47,26,599620173971.315,9184.89599609375
16,599620174325.1611,1780933341469.402,54,27,599620173979.0073,9192.58837890625
16,599620174325.1611,1780933341469.404,61,28,599620173986.6996,9200.280639648438
16,599620174325.1611,1780933341469.407,70,29,599620173994.3918,9207.972900390625
16,599620174325.1611,1780933341469.409,63,30,599620174002.0842,9215.665283203125
16,599620174325.1611,1780933341469.412,65,31,599620174009.7765,9223.357543945312
16,599620174325.1611,1780933341469.414,81,32,599620174017.4689,9231.049926757812
16,599620174325.1611,1780933341469.417,95,33,599620174025.1611,9238.7421875
16,599620174325.1611,1780933341469.419,102,34,599620174032.8534,9246.434448242188
16,599620174325.1611,1780933341469.422,97,35,599620174040.5458,9254.126831054688
16,599620174325.1611,1780933341469.425,72,36,599620174048.238,9261.819091796875
16,599620174325.1611,1780933341469.427,56,37,599620174055.9304,9269.511474609375
16,599620174325.1611,1780933341469.43,79,38,599620174063.6227,9277.203735351562
16,599620174325.1611,1780933341469.4321,102,39,599620174071.315,9284.89599609375
16,599620174325.1611,1780933341469.435,129,40,599620174079.0073,9292.58837890625
16,599620174325.1611,1780933341469.4368,272,41,599620174086.6996,9300.280639648438
16,599620174325.1611,1780933341469.44,564,42,599620174094.3918,9307.972900390625
16,599620174325.1611,1780933341469.443,659,43,599620174102.0842,9315.665283203125
16,599620174325.1611,1780933341469.445,152,44,599620174109.7765,9323.357543945312
16,599620174325.1611,1780933341469.448,-459,45,599620174117.4689,9331.049926757812
16,599620174325.1611,1780933341469.45,-438,46,599620174125.1611,9338.7421875
16,599620174325.1611,1780933341469.4531,-75,47,599620174132.8534,9346.434448242188
16,599620174325.1611,1780933341469.456,79,48,599620174140.5458,9354.126831054688
16,599620174325.1611,1780933341469.458,93,49,599620174148.238,9361.819091796875
16,599620174325.1611,1780933341469.461,134,50,599620174155.9304,9369.511474609375
16,599620174325.1611,1780933341469.4631,166,51,599620174163.6227,9377.203735351562
16,599620174325.1611,1780933341469.466,170,52,599620174171.315,9384.89599609375
16,599620174325.1611,1780933341469.47,172,53,599620174179.0073,9392.58837890625
16,599620174325.1611,1780933341469.473,172,54,599620174186.6996,9400.280639648438
16,599620174325.1611,1780933341469.476,170,55,599620174194.3918,9407.972900390625
16,599620174325.1611,1780933341469.4778,166,56,599620174202.0842,9415.665283203125
16,599620174325.1611,1780933341469.481,136,57,599620174209.7765,9423.357543945312
16,599620174325.1611,1780933341469.483,100,58,599620174217.4689,9431.049926757812
16,599620174325.1611,1780933341469.486,63,59,599620174225.1611,9438.7421875
16,599620174325.1611,1780933341469.4878,27,60,599620174232.8534,9446.434448242188
16,599620174325.1611,1780933341469.491,25,61,599620174240.5458,9454.126831054688
16,599620174325.1611,1780933341469.4941,29,62,599620174248.238,9461.819091796875
16,599620174325.1611,1780933341469.496,27,63,599620174255.9304,9469.511474609375
16,599620174325.1611,1780933341469.499,56,64,599620174263.6227,9477.203735351562
16,599620174325.1611,1780933341469.501,93,65,599620174271.315,9484.89599609375
16,599620174325.1611,1780933341469.5042,118,66,599620174279.0073,9492.58837890625
16,599620174325.1611,1780933341469.506,166,67,599620174286.6996,9500.280639648438
16,599620174325.1611,1780933341469.5088,218,68,599620174294.3918,9507.972900390625
16,599620174325.1611,1780933341469.511,241,69,599620174302.0842,9515.665283203125
16,599620174325.1611,1780933341469.514,270,70,599620174309.7765,9523.357543945312
16,599620174325.1611,1780933341469.517,316,71,599620174317.4689,9531.049926757812
16,599620174325.1611,1780933341469.5188,348,72,599620174325.1611,9538.7421875
17,599620174886.7229,1780933342053.4922,377,0,599620174332.8767,9546.457763671875
17,599620174886.7229,1780933342053.5022,409,1,599620174340.5691,9554.150146484375
17,599620174886.7229,1780933342053.5059,427,2,599620174348.2614,9561.842407226562
17,599620174886.7229,1780933342053.509,425,3,599620174355.9536,9569.53466796875
17,599620174886.7229,1780933342053.518,382,4,599620174363.646,9577.22705078125
17,599620174886.7229,1780933342053.521,320,5,599620174371.3383,9584.919311523438
17,599620174886.7229,1780933342053.524,284,6,599620174379.0306,9592.611694335938
17,599620174886.7229,1780933342053.527,243,7,599620174386.7229,9600.303955078125
17,599620174886.7229,1780933342053.53,186,8,599620174394.4152,9607.996215820312
17,599620174886.7229,1780933342053.5369,134,9,599620174402.1075,9615.688598632812
17,599620174886.7229,1780933342053.54,61,10,599620174409.7998,9623.380859375
17,599620174886.7229,1780933342053.543,-6,11,599620174417.4922,9631.0732421875
17,599620174886.7229,1780933342053.546,-9,12,599620174425.1844,9638.765502929688
17,599620174886.7229,1780933342053.548,11,13,599620174432.8767,9646.457763671875
17,599620174886.7229,1780933342053.551,0,14,599620174440.5691,9654.150146484375
17,599620174886.7229,1780933342053.554,-29,15,599620174448.2614,9661.842407226562
17,599620174886.7229,1780933342053.557,-61,16,599620174455.9536,9669.53466796875
17,599620174886.7229,1780933342053.56,-59,17,599620174463.646,9677.22705078125
17,599620174886.7229,1780933342053.5632,-20,18,599620174471.3383,9684.919311523438
17,599620174886.7229,1780933342053.566,4,19,599620174479.0306,9692.611694335938
17,599620174886.7229,1780933342053.569,15,20,599620174486.7229,9700.303955078125
17,599620174886.7229,1780933342053.571,29,21,599620174494.4152,9707.996215820312
17,599620174886.7229,1780933342053.574,36,22,599620174502.1075,9715.688598632812
17,599620174886.7229,1780933342053.577,43,23,599620174509.7998,9723.380859375
17,599620174886.7229,1780933342053.58,61,24,599620174517.4922,9731.0732421875
17,599620174886.7229,1780933342053.583,79,25,599620174525.1844,9738.765502929688
17,599620174886.7229,1780933342053.586,93,26,599620174532.8767,9746.457763671875
17,599620174886.7229,1780933342053.588,97,27,599620174540.5691,9754.150146484375
17,599620174886.7229,1780933342053.591,97,28,599620174548.2614,9761.842407226562
17,599620174886.7229,1780933342053.594,93,29,599620174555.9536,9769.53466796875
17,599620174886.7229,1780933342053.596,77,30,599620174563.646,9777.22705078125
17,599620174886.7229,1780933342053.599,54,31,599620174571.3383,9784.919311523438
17,599620174886.7229,1780933342053.602,54,32,599620174579.0306,9792.611694335938
17,599620174886.7229,1780933342053.605,63,33,599620174586.7229,9800.303955078125
17,599620174886.7229,1780933342053.607,63,34,599620174594.4152,9807.996215820312
17,599620174886.7229,1780933342053.61,70,35,599620174602.1075,9815.688598632812
17,599620174886.7229,1780933342053.613,88,36,599620174609.7998,9823.380859375
17,599620174886.7229,1780933342053.616,97,37,599620174617.4922,9831.0732421875
17,599620174886.7229,1780933342053.618,106,38,599620174625.1844,9838.765502929688
17,599620174886.7229,1780933342053.621,104,39,599620174632.8767,9846.457763671875
17,599620174886.7229,1780933342053.624,88,40,599620174640.5691,9854.150146484375
17,599620174886.7229,1780933342053.631,88,41,599620174648.2614,9861.842407226562
17,599620174886.7229,1780933342053.633,106,42,599620174655.9536,9869.53466796875
17,599620174886.7229,1780933342053.636,122,43,599620174663.646,9877.22705078125
17,599620174886.7229,1780933342053.639,134,44,599620174671.3383,9884.919311523438
17,599620174886.7229,1780933342053.642,134,45,599620174679.0306,9892.611694335938
17,599620174886.7229,1780933342053.6448,122,46,599620174686.7229,9900.303955078125
17,599620174886.7229,1780933342053.648,111,47,599620174694.4152,9907.996215820312
17,599620174886.7229,1780933342053.65,116,48,599620174702.1075,9915.688598632812
17,599620174886.7229,1780933342053.653,129,49,599620174709.7998,9923.380859375
17,599620174886.7229,1780933342053.656,120,50,599620174717.4922,9931.0732421875
17,599620174886.7229,1780933342053.659,90,51,599620174725.1844,9938.765502929688
17,599620174886.7229,1780933342053.6611,81,52,599620174732.8767,9946.457763671875
17,599620174886.7229,1780933342053.664,93,53,599620174740.5691,9954.150146484375
17,599620174886.7229,1780933342053.667,102,54,599620174748.2614,9961.842407226562
17,599620174886.7229,1780933342053.67,120,55,599620174755.9536,9969.53466796875
17,599620174886.7229,1780933342053.673,145,56,599620174763.646,9977.22705078125
17,599620174886.7229,1780933342053.675,154,57,599620174771.3383,9984.919311523438
17,599620174886.7229,1780933342053.678,172,58,599620174779.0306,9992.611694335938
17,599620174886.7229,1780933342053.681,216,59,599620174786.7229,10000.303955078125
17,599620174886.7229,1780933342053.683,232,60,599620174794.4152,10007.996215820312
17,599620174886.7229,1780933342053.6858,202,61,599620174802.1075,10015.688598632812
17,599620174886.7229,1780933342053.689,161,62,599620174809.7998,10023.380859375
17,599620174886.7229,1780933342053.6921,131,63,599620174817.4922,10031.0732421875
17,599620174886.7229,1780933342053.695,120,64,599620174825.1844,10038.765502929688
17,599620174886.7229,1780933342053.697,113,65,599620174832.8767,10046.457763671875
17,599620174886.7229,1780933342053.7,109,66,599620174840.5691,10054.150146484375
17,599620174886.7229,1780933342053.7031,106,67,599620174848.2614,10061.842407226562
17,599620174886.7229,1780933342053.705,111,68,599620174855.9536,10069.53466796875
17,599620174886.7229,1780933342053.708,116,69,599620174863.646,10077.22705078125
17,599620174886.7229,1780933342053.711,106,70,599620174871.3383,10084.919311523438
17,599620174886.7229,1780933342053.714,79,71,599620174879.0306,10092.611694335938
17,599620174886.7229,1780933342053.7168,63,72,599620174886.7229,10100.303955078125
18,599620175448.2998,1780933342642.5222,70,0,599620174894.4536,10108.03466796875
18,599620175448.2998,1780933342642.54,79,1,599620174902.146,10115.72705078125
18,599620175448.2998,1780933342642.544,86,2,599620174909.8383,10123.419311523438
18,599620175448.2998,1780933342642.548,95,3,599620174917.5305,10131.111572265625
18,599620175448.2998,1780933342642.551,100,4,599620174925.2229,10138.803955078125
18,599620175448.2998,1780933342642.554,93,5,599620174932.9152,10146.496215820312
18,599620175448.2998,1780933342642.559,88,6,599620174940.6075,10154.188598632812
18,599620175448.2998,1780933342642.563,179,7,599620174948.2998,10161.880859375
18,599620175448.2998,1780933342642.565,484,8,599620174955.9921,10169.573120117188
18,599620175448.2998,1780933342642.568,759,9,599620174963.6844,10177.265502929688
18,599620175448.2998,1780933342642.571,459,10,599620174971.3767,10184.957763671875
18,599620175448.2998,1780933342642.573,-259,11,599620174979.0691,10192.650146484375
18,599620175448.2998,1780933342642.577,-509,12,599620174986.7614,10200.342407226562
18,599620175448.2998,1780933342642.579,-161,13,599620174994.4536,10208.03466796875
18,599620175448.2998,1780933342642.582,70,14,599620175002.146,10215.72705078125
18,599620175448.2998,1780933342642.585,34,15,599620175009.8383,10223.419311523438
18,599620175448.2998,1780933342642.588,50,16,599620175017.5305,10231.111572265625
18,599620175448.2998,1780933342642.591,111,17,599620175025.2229,10238.803955078125
18,599620175448.2998,1780933342642.593,93,18,599620175032.9152,10246.496215820312
18,599620175448.2998,1780933342642.7,61,19,599620175040.6075,10254.188598632812
18,599620175448.2998,1780933342642.705,75,20,599620175048.2998,10261.880859375
18,599620175448.2998,1780933342642.708,93,21,599620175055.9921,10269.573120117188
18,599620175448.2998,1780933342642.71,97,22,599620175063.6844,10277.265502929688
18,599620175448.2998,1780933342642.7131,113,23,599620175071.3767,10284.957763671875
18,599620175448.2998,1780933342642.7158,134,24,599620175079.0691,10292.650146484375
18,599620175448.2998,1780933342642.718,136,25,599620175086.7614,10300.342407226562
18,599620175448.2998,1780933342642.721,143,26,599620175094.4536,10308.03466796875
18,599620175448.2998,1780933342642.724,159,27,599620175102.146,10315.72705078125
18,599620175448.2998,1780933342642.7258,172,28,599620175109.8383,10323.419311523438
18,599620175448.2998,1780933342642.729,188,29,599620175117.5305,10331.111572265625
18,599620175448.2998,1780933342642.732,209,30,599620175125.2229,10338.803955078125
18,599620175448.2998,1780933342642.7341,222,31,599620175132.9152,10346.496215820312
18,599620175448.2998,1780933342642.7368,234,32,599620175140.6075,10354.188598632812
18,599620175448.2998,1780933342642.74,254,33,599620175148.2998,10361.880859375
18,599620175448.2998,1780933342642.742,279,34,599620175155.9921,10369.573120117188
18,599620175448.2998,1780933342642.745,309,35,599620175163.6844,10377.265502929688
18,599620175448.2998,1780933342642.7468,329,36,599620175171.3767,10384.957763671875
18,599620175448.2998,1780933342642.75,327,37,599620175179.0691,10392.650146484375
18,599620175448.2998,1780933342642.752,322,38,599620175186.7614,10400.342407226562
18,599620175448.2998,1780933342642.7551,300,39,599620175194.4536,10408.03466796875
18,599620175448.2998,1780933342642.7568,277,40,599620175202.146,10415.72705078125
18,599620175448.2998,1780933342642.76,304,41,599620175209.8383,10423.419311523438
18,599620175448.2998,1780933342642.769,332,42,599620175217.5305,10431.111572265625
18,599620175448.2998,1780933342642.772,313,43,599620175225.2229,10438.803955078125
18,599620175448.2998,1780933342642.7742,282,44,599620175232.9152,10446.496215820312
18,599620175448.2998,1780933342642.7769,243,45,599620175240.6075,10454.188598632812
18,599620175448.2998,1780933342642.78,195,46,599620175248.2998,10461.880859375
18,599620175448.2998,1780933342642.783,141,47,599620175255.9921,10469.573120117188
18,599620175448.2998,1780933342642.7852,86,48,599620175263.6844,10477.265502929688
18,599620175448.2998,1780933342642.7878,47,49,599620175271.3767,10484.957763671875
18,599620175448.2998,1780933342642.791,34,50,599620175279.0691,10492.650146484375
18,599620175448.2998,1780933342642.794,20,51,599620175286.7614,10500.342407226562
18,599620175448.2998,1780933342642.7969,13,52,599620175294.4536,10508.03466796875
18,599620175448.2998,1780933342642.7988,18,53,599620175302.146,10515.72705078125
18,599620175448.2998,1780933342642.802,15,54,599620175309.8383,10523.419311523438
18,599620175448.2998,1780933342642.804,11,55,599620175317.5305,10531.111572265625
18,599620175448.2998,1780933342642.8071,22,56,599620175325.2229,10538.803955078125
18,599620175448.2998,1780933342642.8088,38,57,599620175332.9152,10546.496215820312
18,599620175448.2998,1780933342642.812,45,58,599620175340.6075,10554.188598632812
18,599620175448.2998,1780933342642.8152,31,59,599620175348.2998,10561.880859375
18,599620175448.2998,1780933342642.8171,2,60,599620175355.9921,10569.573120117188
18,599620175448.2998,1780933342642.8198,0,61,599620175363.6844,10577.265502929688
18,599620175448.2998,1780933342642.823,27,62,599620175371.3767,10584.957763671875
18,599620175448.2998,1780933342642.825,40,63,599620175379.0691,10592.650146484375
18,599620175448.2998,1780933342642.828,40,64,599620175386.7614,10600.342407226562
18,599620175448.2998,1780933342642.8298,31,65,599620175394.4536,10608.03466796875
18,599620175448.2998,1780933342642.833,13,66,599620175402.146,10615.72705078125
18,599620175448.2998,1780933342642.835,13,67,599620175409.8383,10623.419311523438
18,599620175448.2998,1780933342642.838,27,68,599620175417.5305,10631.111572265625
18,599620175448.2998,1780933342642.8398,22,69,599620175425.2229,10638.803955078125
18,599620175448.2998,1780933342642.843,15,70,599620175432.9152,10646.496215820312
18,599620175448.2998,1780933342642.845,22,71,599620175440.6075,10654.188598632812
18,599620175448.2998,1780933342642.848,36,72,599620175448.2998,10661.880859375
19,599620176009.8463,1780933343182.039,50,0,599620175456.0001,10669.581176757812
19,599620176009.8463,1780933343182.052,59,1,599620175463.6925,10677.273559570312
19,599620176009.8463,1780933343182.056,61,2,599620175471.3848,10684.9658203125
19,599620176009.8463,1780933343182.059,72,3,599620175479.077,10692.658081054688
19,599620176009.8463,1780933343182.062,88,4,599620175486.7694,10700.350463867188
19,599620176009.8463,1780933343182.065,88,5,599620175494.4617,10708.042724609375
19,599620176009.8463,1780933343182.068,81,6,599620175502.154,10715.735107421875
19,599620176009.8463,1780933343182.071,61,7,599620175509.8463,10723.427368164062
19,599620176009.8463,1780933343182.073,25,8,599620175517.5386,10731.11962890625
19,599620176009.8463,1780933343182.076,0,9,599620175525.231,10738.81201171875
19,599620176009.8463,1780933343182.08,-29,10,599620175532.9232,10746.504272460938
19,599620176009.8463,1780933343182.083,-65,11,599620175540.6156,10754.196655273438
19,599620176009.8463,1780933343182.085,-50,12,599620175548.3079,10761.888916015625
19,599620176009.8463,1780933343182.088,-15,13,599620175556.0001,10769.581176757812
19,599620176009.8463,1780933343182.091,-9,14,599620175563.6925,10777.273559570312
19,599620176009.8463,1780933343182.094,-4,15,599620175571.3848,10784.9658203125
19,599620176009.8463,1780933343182.096,11,16,599620175579.077,10792.658081054688
19,599620176009.8463,1780933343182.099,25,17,599620175586.7694,10800.350463867188
19,599620176009.8463,1780933343182.106,43,18,599620175594.4617,10808.042724609375
19,599620176009.8463,1780933343182.1091,56,19,599620175602.154,10815.735107421875
19,599620176009.8463,1780933343182.111,61,20,599620175609.8463,10823.427368164062
19,599620176009.8463,1780933343182.1138,75,21,599620175617.5386,10831.11962890625
19,599620176009.8463,1780933343182.117,95,22,599620175625.231,10838.81201171875
19,599620176009.8463,1780933343182.12,120,23,599620175632.9232,10846.504272460938
19,599620176009.8463,1780933343182.122,166,24,599620175640.6156,10854.196655273438
19,599620176009.8463,1780933343182.125,206,25,599620175648.3079,10861.888916015625
19,599620176009.8463,1780933343182.128,193,26,599620175656.0001,10869.581176757812
19,599620176009.8463,1780933343182.131,129,27,599620175663.6925,10877.273559570312
19,599620176009.8463,1780933343182.133,65,28,599620175671.3848,10884.9658203125
19,599620176009.8463,1780933343182.136,34,29,599620175679.077,10892.658081054688
19,599620176009.8463,1780933343182.138,20,30,599620175686.7694,10900.350463867188
19,599620176009.8463,1780933343182.141,6,31,599620175694.4617,10908.042724609375
19,599620176009.8463,1780933343182.143,-13,32,599620175702.154,10915.735107421875
19,599620176009.8463,1780933343182.146,-31,33,599620175709.8463,10923.427368164062
19,599620176009.8463,1780933343182.149,-38,34,599620175717.5386,10931.11962890625
19,599620176009.8463,1780933343182.1511,-20,35,599620175725.231,10938.81201171875
19,599620176009.8463,1780933343182.154,4,36,599620175732.9232,10946.504272460938
19,599620176009.8463,1780933343182.156,20,37,599620175740.6156,10954.196655273438
19,599620176009.8463,1780933343182.159,27,38,599620175748.3079,10961.888916015625
19,599620176009.8463,1780933343182.1611,31,39,599620175756.0001,10969.581176757812
19,599620176009.8463,1780933343182.164,38,40,599620175763.6925,10977.273559570312
19,599620176009.8463,1780933343182.167,56,41,599620175771.3848,10984.9658203125
19,599620176009.8463,1780933343182.169,79,42,599620175779.077,10992.658081054688
19,599620176009.8463,1780933343182.172,95,43,599620175786.7694,11000.350463867188
19,599620176009.8463,1780933343182.174,90,44,599620175794.4617,11008.042724609375
19,599620176009.8463,1780933343182.177,97,45,599620175802.154,11015.735107421875
19,599620176009.8463,1780933343182.179,222,46,599620175809.8463,11023.427368164062
19,599620176009.8463,1780933343182.1821,534,47,599620175817.5386,11031.11962890625
19,599620176009.8463,1780933343182.1848,768,48,599620175825.231,11038.81201171875
19,599620176009.8463,1780933343182.187,436,49,599620175832.9232,11046.504272460938
19,599620176009.8463,1780933343182.19,-277,50,599620175840.6156,11054.196655273438
19,599620176009.8463,1780933343182.193,-509,51,599620175848.3079,11061.888916015625
19,599620176009.8463,1780933343182.195,-136,52,599620175856.0001,11069.581176757812
19,599620176009.8463,1780933343182.198,125,53,599620175863.6925,11077.273559570312
19,599620176009.8463,1780933343182.2,90,54,599620175871.3848,11084.9658203125
19,599620176009.8463,1780933343182.208,95,55,599620175879.077,11092.658081054688
19,599620176009.8463,1780933343182.211,136,56,599620175886.7694,11100.350463867188
19,599620176009.8463,1780933343182.214,97,57,599620175894.4617,11108.042724609375
19,599620176009.8463,1780933343182.2158,81,58,599620175902.154,11115.735107421875
19,599620176009.8463,1780933343182.219,122,59,599620175909.8463,11123.427368164062
19,599620176009.8463,1780933343182.221,136,60,599620175917.5386,11131.11962890625
19,599620176009.8463,1780933343182.224,120,61,599620175925.231,11138.81201171875
19,599620176009.8463,1780933343182.2268,116,62,599620175932.9232,11146.504272460938
19,599620176009.8463,1780933343182.229,122,63,599620175940.6156,11154.196655273438
19,599620176009.8463,1780933343182.232,138,64,599620175948.3079,11161.888916015625
19,599620176009.8463,1780933343182.2341,156,65,599620175956.0001,11169.581176757812
19,599620176009.8463,1780933343182.2368,179,66,599620175963.6925,11177.273559570312
19,599620176009.8463,1780933343182.239,193,67,599620175971.3848,11184.9658203125
19,599620176009.8463,1780933343182.242,186,68,599620175979.077,11192.658081054688
19,599620176009.8463,1780933343182.245,161,69,599620175986.7694,11200.350463867188
19,599620176009.8463,1780933343182.2468,170,70,599620175994.4617,11208.042724609375
19,599620176009.8463,1780933343182.25,216,71,599620176002.154,11215.735107421875
19,599620176009.8463,1780933343182.253,241,72,599620176009.8463,11223.427368164062
20,599620176571.408,1780933343812.0461,254,0,599620176017.5618,11231.142822265625
20,599620176571.408,1780933343812.0579,275,1,599620176025.2542,11238.835205078125
20,599620176571.408,1780933343812.062,297,2,599620176032.9464,11246.527465820312
20,599620176571.408,1780933343812.065,332,3,599620176040.6387,11254.2197265625
20,599620176571.408,1780933343812.0679,373,4,599620176048.331,11261.912109375
20,599620176571.408,1780933343812.073,398,5,599620176056.0233,11269.604370117188
20,599620176571.408,1780933343812.0762,416,6,599620176063.7157,11277.296752929688
20,599620176571.408,1780933343812.0789,398,7,599620176071.408,11284.989013671875
20,599620176571.408,1780933343812.082,336,8,599620176079.1002,11292.681274414062
20,599620176571.408,1780933343812.084,309,9,599620176086.7926,11300.373657226562
20,599620176571.408,1780933343812.0872,311,10,599620176094.4849,11308.06591796875
20,599620176571.408,1780933343812.0898,279,11,599620176102.1772,11315.75830078125
20,599620176571.408,1780933343812.093,213,12,599620176109.8695,11323.450561523438
20,599620176571.408,1780933343812.0962,143,13,599620176117.5618,11331.142822265625
20,599620176571.408,1780933343812.0981,88,14,599620176125.2542,11338.835205078125
20,599620176571.408,1780933343812.1008,59,15,599620176132.9464,11346.527465820312
20,599620176571.408,1780933343812.104,13,16,599620176140.6387,11354.2197265625
20,599620176571.408,1780933343812.1072,-45,17,599620176148.331,11361.912109375
20,599620176571.408,1780933343812.1099,-56,18,599620176156.0233,11369.604370117188
20,599620176571.408,1780933343812.113,-45,19,599620176163.7157,11377.296752929688
