packet_id,device_time,host_time,ecg,sample_idx,sample_time,time_ms
0,599616012474.8479,1780936882940.94,10048,0,599616011921.0017,0.0
0,599616012474.8479,1780936882940.9539,14528,1,599616011928.6941,7.6923828125
0,599616012474.8479,1780936882940.957,4184,2,599616011936.3864,15.3846435546875
0,599616012474.8479,1780936882940.961,14697,3,599616011944.0786,23.076904296875
0,599616012474.8479,1780936882940.9639,9990,4,599616011951.771,30.769287109375
0,599616012474.8479,1780936882940.967,6953,5,599616011959.4633,38.4615478515625
0,599616012474.8479,1780936882940.97,15566,6,599616011967.1556,46.1539306640625
0,599616012474.8479,1780936882940.9722,5088,7,599616011974.8479,53.84619140625
0,599616012474.8479,1780936882940.9749,12523,8,599616011982.5402,61.5384521484375
0,599616012474.8479,1780936882940.978,12462,9,599616011990.2325,69.2308349609375
0,599616012474.8479,1780936882940.981,4718,10,599616011997.9248,76.923095703125
0,599616012474.8479,1780936882940.9832,15518,11,599616012005.6172,84.615478515625
0,599616012474.8479,1780936882940.9858,7091,12,599616012013.3094,92.3077392578125
0,599616012474.8479,1780936882940.989,9535,13,599616012021.0017,100.0
0,599616012474.8479,1780936882940.9922,14298,14,599616012028.6941,107.6923828125
0,599616012474.8479,1780936882940.9958,3877,15,599616012036.3864,115.3846435546875
0,599616012474.8479,1780936882941.0,14381,16,599616012044.0786,123.076904296875
0,599616012474.8479,1780936882941.005,9742,17,599616012051.771,130.769287109375
0,599616012474.8479,1780936882941.009,6412,18,599616012059.4633,138.4615478515625
0,599616012474.8479,1780936882941.0132,15048,19,599616012067.1556,146.1539306640625
0,599616012474.8479,1780936882941.0168,4521,20,599616012074.8479,153.84619140625
0,599616012474.8479,1780936882941.021,12116,21,599616012082.5402,161.5384521484375
0,599616012474.8479,1780936882941.025,12295,22,599616012090.2325,169.2308349609375
0,599616012474.8479,1780936882941.029,4291,23,599616012097.9248,176.923095703125
0,599616012474.8479,1780936882941.033,15239,24,599616012105.6172,184.615478515625
0,599616012474.8479,1780936882941.0378,6872,25,599616012113.3094,192.3077392578125
0,599616012474.8479,1780936882941.042,9110,26,599616012121.0017,200.0
0,599616012474.8479,1780936882941.046,14075,27,599616012128.6941,207.6923828125
0,599616012474.8479,1780936882941.05,3571,28,599616012136.3864,215.3846435546875
0,599616012474.8479,1780936882941.0542,14028,29,599616012144.0786,223.076904296875
0,599616012474.8479,1780936882941.0579,9491,30,599616012151.771,230.769287109375
0,599616012474.8479,1780936882941.062,6103,31,599616012159.4633,238.4615478515625
0,599616012474.8479,1780936882941.066,15004,32,599616012167.1556,246.1539306640625
0,599616012474.8479,1780936882941.071,4321,33,599616012174.8479,253.84619140625
0,599616012474.8479,1780936882941.0752,11663,34,599616012182.5402,261.5384521484375
0,599616012474.8479,1780936882941.0789,11984,35,599616012190.2325,269.2308349609375
0,599616012474.8479,1780936882941.083,3845,36,599616012197.9248,276.923095703125
0,599616012474.8479,1780936882941.087,14916,37,599616012205.6172,284.615478515625
0,599616012474.8479,1780936882941.091,6521,38,599616012213.3094,292.3077392578125
0,599616012474.8479,1780936882941.0952,8533,39,599616012221.0017,300.0
0,599616012474.8479,1780936882941.0989,13603,40,599616012228.6941,307.6923828125
0,599616012474.8479,1780936882941.104,2948,41,599616012236.3864,315.3846435546875
0,599616012474.8479,1780936882941.108,13622,42,599616012244.0786,323.076904296875
0,599616012474.8479,1780936882941.112,9186,43,599616012251.771,330.769287109375
0,599616012474.8479,1780936882941.1162,5464,44,599616012259.4633,338.4615478515625
0,599616012474.8479,1780936882941.127,14690,45,599616012267.1556,346.1539306640625
0,599616012474.8479,1780936882941.131,4026,46,599616012274.8479,353.84619140625
0,599616012474.8479,1780936882941.136,11150,47,599616012282.5402,361.5384521484375
0,599616012474.8479,1780936882941.14,11668,48,599616012290.2325,369.2308349609375
0,599616012474.8479,1780936882941.144,3443,49,599616012297.9248,376.923095703125
0,599616012474.8479,1780936882941.148,14556,50,599616012305.6172,384.615478515625
0,599616012474.8479,1780936882941.152,6117,51,599616012313.3094,392.3077392578125
0,599616012474.8479,1780936882941.156,8083,52,599616012321.0017,400.0
0,599616012474.8479,1780936882941.161,13536,53,599616012328.6941,407.6923828125
0,599616012474.8479,1780936882941.165,2713,54,599616012336.3864,415.3846435546875
0,599616012474.8479,1780936882941.169,13213,55,599616012344.0786,423.076904296875
0,599616012474.8479,1780936882941.173,8889,56,599616012351.771,430.769287109375
0,599616012474.8479,1780936882941.177,5065,57,599616012359.4633,438.4615478515625
0,599616012474.8479,1780936882941.181,14442,58,599616012367.1556,446.1539306640625
0,599616012474.8479,1780936882941.185,3675,59,599616012374.8479,453.84619140625
0,599616012474.8479,1780936882941.189,10671,60,599616012382.5402,461.5384521484375
0,599616012474.8479,1780936882941.193,11245,61,599616012390.2325,469.2308349609375
0,599616012474.8479,1780936882941.197,2825,62,599616012397.9248,476.923095703125
0,599616012474.8479,1780936882941.201,14256,63,599616012405.6172,484.615478515625
0,599616012474.8479,1780936882941.205,5927,64,599616012413.3094,492.3077392578125
0,599616012474.8479,1780936882941.211,7620,65,599616012421.0017,500.0
0,599616012474.8479,1780936882941.215,13278,66,599616012428.6941,507.6923828125
0,599616012474.8479,1780936882941.219,2346,67,599616012436.3864,515.3846435546875
0,599616012474.8479,1780936882941.223,12811,68,599616012444.0786,523.076904296875
0,599616012474.8479,1780936882941.227,8645,69,599616012451.771,530.769287109375
0,599616012474.8479,1780936882941.231,4607,70,599616012459.4633,538.4615478515625
0,599616012474.8479,1780936882941.235,14114,71,599616012467.1556,546.1539306640625
0,599616012474.8479,1780936882941.239,3394,72,599616012474.8479,553.84619140625
1,599616013036.4148,1780936883481.344,10387,0,599616012482.5686,561.56689453125
1,599616013036.4148,1780936883481.363,11194,1,599616012490.261,569.25927734375
1,599616013036.4148,1780936883481.3699,2516,2,599616012497.9532,576.9515380859375
1,599616013036.4148,1780936883481.373,13910,3,599616012505.6455,584.643798828125
1,599616013036.4148,1780936883481.38,5671,4,599616012513.3379,592.336181640625
1,599616013036.4148,1780936883481.383,7230,5,599616012521.0302,600.0284423828125
1,599616013036.4148,1780936883481.386,13043,6,599616012528.7225,607.7208251953125
1,599616013036.4148,1780936883481.3882,2007,7,599616012536.4148,615.4130859375
1,599616013036.4148,1780936883481.3909,12458,8,599616012544.107,623.1053466796875
1,599616013036.4148,1780936883481.393,8310,9,599616012551.7994,630.7977294921875
1,599616013036.4148,1780936883481.395,4093,10,599616012559.4917,638.489990234375
1,599616013036.4148,1780936883481.465,13931,11,599616012567.1841,646.182373046875
1,599616013036.4148,1780936883481.489,3124,12,599616012574.8763,653.8746337890625
1,599616013036.4148,1780936883481.496,9881,13,599616012582.5686,661.56689453125
1,599616013036.4148,1780936883481.503,10866,14,599616012590.261,669.25927734375
1,599616013036.4148,1780936883481.585,2049,15,599616012597.9532,676.9515380859375
1,599616013036.4148,1780936883481.618,13612,16,599616012605.6455,684.643798828125
1,599616013036.4148,1780936883481.693,5415,17,599616012613.3379,692.336181640625
1,599616013036.4148,1780936883481.698,6716,18,599616012621.0302,700.0284423828125
1,599616013036.4148,1780936883481.701,12732,19,599616012628.7225,707.7208251953125
1,599616013036.4148,1780936883481.7048,1596,20,599616012636.4148,715.4130859375
1,599616013036.4148,1780936883481.707,12039,21,599616012644.107,723.1053466796875
1,599616013036.4148,1780936883481.709,8148,22,599616012651.7994,730.7977294921875
1,599616013036.4148,1780936883481.7122,3796,23,599616012659.4917,738.489990234375
1,599616013036.4148,1780936883481.714,13670,24,599616012667.1841,746.182373046875
1,599616013036.4148,1780936883481.7158,2792,25,599616012674.8763,753.8746337890625
1,599616013036.4148,1780936883481.719,9491,26,599616012682.5686,761.56689453125
1,599616013036.4148,1780936883481.721,10703,27,599616012690.261,769.25927734375
1,599616013036.4148,1780936883481.7861,1751,28,599616012697.9532,776.9515380859375
1,599616013036.4148,1780936883481.791,13285,29,599616012705.6455,784.643798828125
1,599616013036.4148,1780936883481.7942,5071,30,599616012713.3379,792.336181640625
1,599616013036.4148,1780936883481.7969,6298,31,599616012721.0302,800.0284423828125
1,599616013036.4148,1780936883481.7988,12530,32,599616012728.7225,807.7208251953125
1,599616013036.4148,1780936883481.802,1261,33,599616012736.4148,815.4130859375
1,599616013036.4148,1780936883481.8052,11740,34,599616012744.107,823.1053466796875
1,599616013036.4148,1780936883481.807,7936,35,599616012751.7994,830.7977294921875
1,599616013036.4148,1780936883481.812,3308,36,599616012759.4917,838.489990234375
1,599616013036.4148,1780936883481.814,13343,37,599616012767.1841,846.182373046875
1,599616013036.4148,1780936883481.8162,2441,38,599616012774.8763,853.8746337890625
1,599616013036.4148,1780936883481.8188,9086,39,599616012782.5686,861.56689453125
1,599616013036.4148,1780936883481.821,10522,40,599616012790.261,869.25927734375
1,599616013036.4148,1780936883481.823,1310,41,599616012797.9532,876.9515380859375
1,599616013036.4148,1780936883481.8252,12904,42,599616012805.6455,884.643798828125
1,599616013036.4148,1780936883481.827,4779,43,599616012813.3379,892.336181640625
1,599616013036.4148,1780936883481.8289,5759,44,599616012821.0302,900.0284423828125
1,599616013036.4148,1780936883481.832,12193,45,599616012828.7225,907.7208251953125
1,599616013036.4148,1780936883481.834,901,46,599616012836.4148,915.4130859375
1,599616013036.4148,1780936883481.837,11352,47,599616012844.107,923.1053466796875
1,599616013036.4148,1780936883481.8398,7606,48,599616012851.7994,930.7977294921875
1,599616013036.4148,1780936883481.842,2692,49,599616012859.4917,938.489990234375
1,599616013036.4148,1780936883481.844,12918,50,599616012867.1841,946.182373046875
1,599616013036.4148,1780936883481.861,2116,51,599616012874.8763,953.8746337890625
1,599616013036.4148,1780936883481.896,8631,52,599616012882.5686,961.56689453125
1,599616013036.4148,1780936883481.899,10188,53,599616012890.261,969.25927734375
1,599616013036.4148,1780936883481.92,880,54,599616012897.9532,976.9515380859375
1,599616013036.4148,1780936883481.925,12625,55,599616012905.6455,984.643798828125
1,599616013036.4148,1780936883481.9282,4502,56,599616012913.3379,992.336181640625
1,599616013036.4148,1780936883481.931,5318,57,599616012921.0302,1000.0284423828125
1,599616013036.4148,1780936883482.007,12032,58,599616012928.7225,1007.7208251953125
1,599616013036.4148,1780936883482.03,539,59,599616012936.4148,1015.4130859375
1,599616013036.4148,1780936883482.043,10892,60,599616012944.107,1023.1053466796875
1,599616013036.4148,1780936883482.047,7365,61,599616012951.7994,1030.7977294921875
1,599616013036.4148,1780936883482.083,2353,62,599616012959.4917,1038.489990234375
1,599616013036.4148,1780936883482.085,12797,63,599616012967.1841,1046.182373046875
1,599616013036.4148,1780936883482.0881,1849,64,599616012974.8763,1053.8746337890625
1,599616013036.4148,1780936883482.1428,8152,65,599616012982.5686,1061.56689453125
1,599616013036.4148,1780936883482.21,10027,66,599616012990.261,1069.25927734375
1,599616013036.4148,1780936883482.2349,485,67,599616012997.9532,1076.9515380859375
1,599616013036.4148,1780936883482.2422,12230,68,599616013005.6455,1084.643798828125
1,599616013036.4148,1780936883482.311,4312,69,599616013013.3379,1092.336181640625
1,599616013036.4148,1780936883482.3142,4862,70,599616013021.0302,1100.0284423828125
1,599616013036.4148,1780936883482.317,11700,71,599616013028.7225,1107.7208251953125
1,599616013036.4148,1780936883482.32,253,72,599616013036.4148,1115.4130859375
2,599616013597.9663,1780936884021.007,10580,0,599616013044.1201,1123.118408203125
2,599616013597.9663,1780936884021.019,7146,1,599616013051.8125,1130.810791015625
2,599616013597.9663,1780936884021.021,1942,2,599616013059.5048,1138.5030517578125
2,599616013597.9663,1780936884021.025,12537,3,599616013067.197,1146.1953125
2,599616013597.9663,1780936884021.027,1572,4,599616013074.8894,1153.8876953125
2,599616013597.9663,1780936884021.03,7729,5,599616013082.5817,1161.5799560546875
2,599616013597.9663,1780936884021.032,9769,6,599616013090.274,1169.2723388671875
2,599616013597.9663,1780936884021.034,123,7,599616013097.9663,1176.964599609375
2,599616013597.9663,1780936884021.037,12007,8,599616013105.6586,1184.6568603515625
2,599616013597.9663,1780936884021.039,4105,9,599616013113.351,1192.3492431640625
2,599616013597.9663,1780936884021.041,4449,10,599616013121.0432,1200.04150390625
2,599616013597.9663,1780936884021.043,11482,11,599616013128.7356,1207.73388671875
2,599616013597.9663,1780936884021.045,-223,12,599616013136.4279,1215.4261474609375
2,599616013597.9663,1780936884021.047,10062,13,599616013144.1201,1223.118408203125
2,599616013597.9663,1780936884021.049,6946,14,599616013151.8125,1230.810791015625
2,599616013597.9663,1780936884021.051,1549,15,599616013159.5048,1238.5030517578125
2,599616013597.9663,1780936884021.053,12246,16,599616013167.197,1246.1953125
2,599616013597.9663,1780936884021.057,1245,17,599616013174.8894,1253.8876953125
2,599616013597.9663,1780936884021.059,7167,18,599616013182.5817,1261.5799560546875
2,599616013597.9663,1780936884021.061,9465,19,599616013190.274,1269.2723388671875
2,599616013597.9663,1780936884021.063,-195,20,599616013197.9663,1276.964599609375
2,599616013597.9663,1780936884021.065,11712,21,599616013205.6586,1284.6568603515625
2,599616013597.9663,1780936884021.067,3833,22,599616013213.351,1292.3492431640625
2,599616013597.9663,1780936884021.069,3982,23,599616013221.0432,1300.04150390625
2,599616013597.9663,1780936884021.071,11261,24,599616013228.7356,1307.73388671875
2,599616013597.9663,1780936884021.073,-406,25,599616013236.4279,1315.4261474609375
2,599616013597.9663,1780936884021.08,9818,26,599616013244.1201,1323.118408203125
2,599616013597.9663,1780936884021.083,6758,27,599616013251.8125,1330.810791015625
2,599616013597.9663,1780936884021.085,1152,28,599616013259.5048,1338.5030517578125
2,599616013597.9663,1780936884021.087,12016,29,599616013267.197,1346.1953125
2,599616013597.9663,1780936884021.089,1080,30,599616013274.8894,1353.8876953125
2,599616013597.9663,1780936884021.091,6942,31,599616013282.5817,1361.5799560546875
2,599616013597.9663,1780936884021.0928,9349,32,599616013290.274,1369.2723388671875
2,599616013597.9663,1780936884021.095,-631,33,599616013297.9663,1376.964599609375
2,599616013597.9663,1780936884021.097,11393,34,599616013305.6586,1384.6568603515625
2,599616013597.9663,1780936884021.121,3696,35,599616013313.351,1392.3492431640625
2,599616013597.9663,1780936884021.1301,3612,36,599616013321.0432,1400.04150390625
2,599616013597.9663,1780936884021.133,11133,37,599616013328.7356,1407.73388671875
2,599616013597.9663,1780936884021.136,-701,38,599616013336.4279,1415.4261474609375
2,599616013597.9663,1780936884021.139,9302,39,599616013344.1201,1423.118408203125
2,599616013597.9663,1780936884021.142,6514,40,599616013351.8125,1430.810791015625
2,599616013597.9663,1780936884021.145,780,41,599616013359.5048,1438.5030517578125
2,599616013597.9663,1780936884021.148,11707,42,599616013367.197,1446.1953125
2,599616013597.9663,1780936884021.1501,808,43,599616013374.8894,1453.8876953125
2,599616013597.9663,1780936884021.152,6563,44,599616013382.5817,1461.5799560546875
2,599616013597.9663,1780936884021.155,9200,45,599616013390.274,1469.2723388671875
2,599616013597.9663,1780936884021.157,-952,46,599616013397.9663,1476.964599609375
2,599616013597.9663,1780936884021.159,11003,47,599616013405.6586,1484.6568603515625
2,599616013597.9663,1780936884021.1611,3396,48,599616013413.351,1492.3492431640625
2,599616013597.9663,1780936884021.163,3210,49,599616013421.0432,1500.04150390625
2,599616013597.9663,1780936884021.168,10973,50,599616013428.7356,1507.73388671875
2,599616013597.9663,1780936884021.17,-910,51,599616013436.4279,1515.4261474609375
2,599616013597.9663,1780936884021.172,9063,52,599616013444.1201,1523.118408203125
2,599616013597.9663,1780936884021.174,6396,53,599616013451.8125,1530.810791015625
2,599616013597.9663,1780936884021.176,392,54,599616013459.5048,1538.5030517578125
2,599616013597.9663,1780936884021.179,11519,55,599616013467.197,1546.1953125
2,599616013597.9663,1780936884021.1821,638,56,599616013474.8894,1553.8876953125
2,599616013597.9663,1780936884021.184,6131,57,599616013482.5817,1561.5799560546875
2,599616013597.9663,1780936884021.186,8947,58,599616013490.274,1569.2723388671875
2,599616013597.9663,1780936884021.188,-1340,59,599616013497.9663,1576.964599609375
2,599616013597.9663,1780936884021.19,10771,60,599616013505.6586,1584.6568603515625
2,599616013597.9663,1780936884021.2668,3341,61,599616013513.351,1592.3492431640625
2,599616013597.9663,1780936884021.27,2832,62,599616013521.0432,1600.04150390625
2,599616013597.9663,1780936884021.272,10736,63,599616013528.7356,1607.73388671875
2,599616013597.9663,1780936884021.2742,-1189,64,599616013536.4279,1615.4261474609375
2,599616013597.9663,1780936884021.276,8726,65,599616013544.1201,1623.118408203125
2,599616013597.9663,1780936884021.2778,6270,66,599616013551.8125,1630.810791015625
2,599616013597.9663,1780936884021.28,53,67,599616013559.5048,1638.5030517578125
2,599616013597.9663,1780936884021.282,11305,68,599616013567.197,1646.1953125
2,599616013597.9663,1780936884021.2852,455,69,599616013574.8894,1653.8876953125
2,599616013597.9663,1780936884021.2869,5738,70,599616013582.5817,1661.5799560546875
2,599616013597.9663,1780936884021.289,8875,71,599616013590.274,1669.2723388671875
2,599616013597.9663,1780936884021.291,-1477,72,599616013597.9663,1676.964599609375
3,599616014159.528,1780936884605.795,10522,0,599616013605.6818,1684.6800537109375
3,599616014159.528,1780936884605.804,3178,1,599616013613.3741,1692.3724365234375
3,599616014159.528,1780936884605.8071,2499,2,599616013621.0664,1700.064697265625
3,599616014159.528,1780936884605.8098,10541,3,599616013628.7587,1707.7569580078125
3,599616014159.528,1780936884605.813,-1459,4,599616013636.451,1715.4493408203125
3,599616014159.528,1780936884605.815,8380,5,599616013644.1433,1723.1416015625
3,599616014159.528,1780936884605.8171,6071,6,599616013651.8357,1730.833984375
3,599616014159.528,1780936884605.819,-334,7,599616013659.528,1738.5262451171875
3,599616014159.528,1780936884605.822,11098,8,599616013667.2202,1746.218505859375
3,599616014159.528,1780936884605.824,262,9,599616013674.9126,1753.910888671875
3,599616014159.528,1780936884605.826,5318,10,599616013682.6049,1761.6031494140625
3,599616014159.528,1780936884605.8281,8724,11,599616013690.2972,1769.2955322265625
3,599616014159.528,1780936884605.8298,-1716,12,599616013697.9895,1776.98779296875
3,599616014159.528,1780936884605.833,10246,13,599616013705.6818,1784.6800537109375
3,599616014159.528,1780936884605.836,3025,14,599616013713.3741,1792.3724365234375
3,599616014159.528,1780936884605.839,2156,15,599616013721.0664,1800.064697265625
3,599616014159.528,1780936884605.8408,10404,16,599616013728.7587,1807.7569580078125
3,599616014159.528,1780936884605.843,-1600,17,599616013736.451,1815.4493408203125
3,599616014159.528,1780936884605.846,8129,18,599616013744.1433,1823.1416015625
3,599616014159.528,1780936884605.8481,6029,19,599616013751.8357,1830.833984375
3,599616014159.528,1780936884605.85,-601,20,599616013759.528,1838.5262451171875
3,599616014159.528,1780936884605.8518,10861,21,599616013767.2202,1846.218505859375
3,599616014159.528,1780936884605.855,137,22,599616013774.9126,1853.910888671875
3,599616014159.528,1780936884605.857,5048,23,599616013782.6049,1861.6031494140625
3,599616014159.528,1780936884605.8591,8568,24,599616013790.2972,1869.2955322265625
3,599616014159.528,1780936884605.8608,-2053,25,599616013797.9895,1876.98779296875
3,599616014159.528,1780936884605.8691,9920,26,599616013805.6818,1884.6800537109375
3,599616014159.528,1780936884605.8708,2869,27,599616013813.3741,1892.3724365234375
3,599616014159.528,1780936884605.874,1826,28,599616013821.0664,1900.064697265625
3,599616014159.528,1780936884605.877,10246,29,599616013828.7587,1907.7569580078125
3,599616014159.528,1780936884605.8792,-1833,30,599616013836.451,1915.4493408203125
3,599616014159.528,1780936884605.8809,7801,31,599616013844.1433,1923.1416015625
3,599616014159.528,1780936884605.8828,5903,32,599616013851.8357,1930.833984375
3,599616014159.528,1780936884605.886,-927,33,599616013859.528,1938.5262451171875
3,599616014159.528,1780936884605.888,10634,34,599616013867.2202,1946.218505859375
3,599616014159.528,1780936884605.8909,-58,35,599616013874.9126,1953.910888671875
3,599616014159.528,1780936884605.8928,4681,36,599616013882.6049,1961.6031494140625
3,599616014159.528,1780936884605.895,8454,37,599616013890.2972,1969.2955322265625
3,599616014159.528,1780936884605.897,-2304,38,599616013897.9895,1976.98779296875
3,599616014159.528,1780936884605.9001,9644,39,599616013905.6818,1984.6800537109375
3,599616014159.528,1780936884605.9019,2720,40,599616013913.3741,1992.3724365234375
3,599616014159.528,1780936884605.904,1433,41,599616013921.0664,2000.064697265625
3,599616014159.528,1780936884605.906,10064,42,599616013928.7587,2007.7569580078125
3,599616014159.528,1780936884605.9092,-2007,43,599616013936.451,2015.4493408203125
3,599616014159.528,1780936884605.9111,7455,44,599616013944.1433,2023.1416015625
3,599616014159.528,1780936884605.9128,5715,45,599616013951.8357,2030.833984375
3,599616014159.528,1780936884605.915,-1331,46,599616013959.528,2038.5262451171875
3,599616014159.528,1780936884605.917,10327,47,599616013967.2202,2046.218505859375
3,599616014159.528,1780936884605.9202,-195,48,599616013974.9126,2053.910888671875
3,599616014159.528,1780936884605.9219,4363,49,599616013982.6049,2061.6031494140625
3,599616014159.528,1780936884605.9238,8289,50,599616013990.2972,2069.2955322265625
3,599616014159.528,1780936884605.926,-2523,51,599616013997.9895,2076.98779296875
3,599616014159.528,1780936884605.929,9474,52,599616014005.6818,2084.6800537109375
3,599616014159.528,1780936884605.9312,2632,53,599616014013.3741,2092.3724365234375
3,599616014159.528,1780936884605.9329,1080,54,599616014021.0664,2100.064697265625
3,599616014159.528,1780936884605.935,9932,55,599616014028.7587,2107.7569580078125
3,599616014159.528,1780936884605.938,-2151,56,599616014036.451,2115.4493408203125
3,599616014159.528,1780936884605.9402,7170,57,599616014044.1433,2123.1416015625
3,599616014159.528,1780936884605.942,5666,58,599616014051.8357,2130.833984375
3,599616014159.528,1780936884605.945,-1493,59,599616014059.528,2138.5262451171875
3,599616014159.528,1780936884605.947,10257,60,599616014067.2202,2146.218505859375
3,599616014159.528,1780936884605.949,-309,61,599616014074.9126,2153.910888671875
3,599616014159.528,1780936884605.9512,3989,62,599616014082.6049,2161.6031494140625
3,599616014159.528,1780936884605.953,8201,63,599616014090.2972,2169.2955322265625
3,599616014159.528,1780936884605.956,-2674,64,599616014097.9895,2176.98779296875
3,599616014159.528,1780936884605.958,9277,65,599616014105.6818,2184.6800537109375
3,599616014159.528,1780936884605.96,2576,66,599616014113.3741,2192.3724365234375
3,599616014159.528,1780936884605.9622,741,67,599616014121.0664,2200.064697265625
3,599616014159.528,1780936884605.9648,9749,68,599616014128.7587,2207.7569580078125
3,599616014159.528,1780936884605.967,-2235,69,599616014136.451,2215.4493408203125
3,599616014159.528,1780936884605.969,6967,70,599616014144.1433,2223.1416015625
3,599616014159.528,1780936884605.9722,5636,71,599616014151.8357,2230.833984375
3,599616014159.528,1780936884605.9739,-1654,72,599616014159.528,2238.5262451171875
4,599616014721.0897,1780936885146.865,10176,0,599616014167.2435,2246.2418212890625
4,599616014721.0897,1780936885146.883,-329,1,599616014174.9359,2253.9342041015625
4,599616014721.0897,1780936885146.888,3798,2,599616014182.6282,2261.62646484375
4,599616014721.0897,1780936885146.893,8208,3,599616014190.3204,2269.3187255859375
4,599616014721.0897,1780936885146.898,-2822,4,599616014198.0128,2277.0111083984375
4,599616014721.0897,1780936885146.904,9091,5,599616014205.7051,2284.703369140625
4,599616014721.0897,1780936885146.908,2616,6,599616014213.3975,2292.395751953125
4,599616014721.0897,1780936885146.919,643,7,599616014221.0897,2300.0880126953125
4,599616014721.0897,1780936885146.923,9769,8,599616014228.782,2307.7802734375
4,599616014721.0897,1780936885146.927,-2348,9,599616014236.4744,2315.47265625
4,599616014721.0897,1780936885146.931,6733,10,599616014244.1666,2323.1649169921875
4,599616014721.0897,1780936885146.936,5666,11,599616014251.859,2330.8572998046875
4,599616014721.0897,1780936885146.94,-1926,12,599616014259.5513,2338.549560546875
4,599616014721.0897,1780936885146.944,9918,13,599616014267.2435,2346.2418212890625
4,599616014721.0897,1780936885146.948,-367,14,599616014274.9359,2353.9342041015625
4,599616014721.0897,1780936885146.952,3564,15,599616014282.6282,2361.62646484375
4,599616014721.0897,1780936885146.956,8136,16,599616014290.3204,2369.3187255859375
4,599616014721.0897,1780936885146.963,-2966,17,599616014298.0128,2377.0111083984375
4,599616014721.0897,1780936885146.967,8882,18,599616014305.7051,2384.703369140625
4,599616014721.0897,1780936885146.971,2558,19,599616014313.3975,2392.395751953125
4,599616014721.0897,1780936885146.975,415,20,599616014321.0897,2400.0880126953125
4,599616014721.0897,1780936885146.979,9721,21,599616014328.782,2407.7802734375
4,599616014721.0897,1780936885146.983,-2414,22,599616014336.4744,2415.47265625
4,599616014721.0897,1780936885146.987,6505,23,599616014344.1666,2423.1649169921875
4,599616014721.0897,1780936885146.991,5638,24,599616014351.859,2430.8572998046875
4,599616014721.0897,1780936885146.995,-2056,25,599616014359.5513,2438.549560546875
4,599616014721.0897,1780936885146.9988,9916,26,599616014367.2435,2446.2418212890625
4,599616014721.0897,1780936885147.003,-364,27,599616014374.9359,2453.9342041015625
4,599616014721.0897,1780936885147.007,3313,28,599616014382.6282,2461.62646484375
4,599616014721.0897,1780936885147.011,8120,29,599616014390.3204,2469.3187255859375
4,599616014721.0897,1780936885147.0151,-3111,30,599616014398.0128,2477.0111083984375
4,599616014721.0897,1780936885147.0188,8691,31,599616014405.7051,2484.703369140625
4,599616014721.0897,1780936885147.023,2546,32,599616014413.3975,2492.395751953125
4,599616014721.0897,1780936885147.027,148,33,599616014421.0897,2500.0880126953125
4,599616014721.0897,1780936885147.031,9625,34,599616014428.782,2507.7802734375
4,599616014721.0897,1780936885147.035,-2560,35,599616014436.4744,2515.47265625
4,599616014721.0897,1780936885147.0388,6103,36,599616014444.1666,2523.1649169921875
4,599616014721.0897,1780936885147.044,5555,37,599616014451.859,2530.8572998046875
4,599616014721.0897,1780936885147.047,-2207,38,599616014459.5513,2538.549560546875
4,599616014721.0897,1780936885147.052,9760,39,599616014467.2435,2546.2418212890625
4,599616014721.0897,1780936885147.0562,-499,40,599616014474.9359,2553.9342041015625
4,599616014721.0897,1780936885147.0598,2943,41,599616014482.6282,2561.62646484375
4,599616014721.0897,1780936885147.064,8038,42,599616014490.3204,2569.3187255859375
4,599616014721.0897,1780936885147.068,-3222,43,599616014498.0128,2577.0111083984375
4,599616014721.0897,1780936885147.072,8487,44,599616014505.7051,2584.703369140625
4,599616014721.0897,1780936885147.076,2502,45,599616014513.3975,2592.395751953125
4,599616014721.0897,1780936885147.0798,-113,46,599616014521.0897,2600.0880126953125
4,599616014721.0897,1780936885147.084,9509,47,599616014528.782,2607.7802734375
4,599616014721.0897,1780936885147.0881,-2567,48,599616014536.4744,2615.47265625
4,599616014721.0897,1780936885147.092,6015,49,599616014544.1666,2623.1649169921875
4,599616014721.0897,1780936885147.096,5562,50,599616014551.859,2630.8572998046875
4,599616014721.0897,1780936885147.0999,-2446,51,599616014559.5513,2638.549560546875
4,599616014721.0897,1780936885147.104,9660,52,599616014567.2435,2646.2418212890625
4,599616014721.0897,1780936885147.1082,-420,53,599616014574.9359,2653.9342041015625
4,599616014721.0897,1780936885147.1118,2802,54,599616014582.6282,2661.62646484375
4,599616014721.0897,1780936885147.117,8038,55,599616014590.3204,2669.3187255859375
4,599616014721.0897,1780936885147.1208,-3373,56,599616014598.0128,2677.0111083984375
4,599616014721.0897,1780936885147.125,8280,57,599616014605.7051,2684.703369140625
4,599616014721.0897,1780936885147.1292,2548,58,599616014613.3975,2692.395751953125
4,599616014721.0897,1780936885147.133,-267,59,599616014621.0897,2700.0880126953125
4,599616014721.0897,1780936885147.137,9463,60,599616014628.782,2707.7802734375
4,599616014721.0897,1780936885147.1428,-2520,61,599616014636.4744,2715.47265625
4,599616014721.0897,1780936885147.147,5913,62,599616014644.1666,2723.1649169921875
4,599616014721.0897,1780936885147.151,5617,63,599616014651.859,2730.8572998046875
4,599616014721.0897,1780936885147.155,-2525,64,599616014659.5513,2738.549560546875
4,599616014721.0897,1780936885147.1592,9591,65,599616014667.2435,2746.2418212890625
4,599616014721.0897,1780936885147.1628,-348,66,599616014674.9359,2753.9342041015625
4,599616014721.0897,1780936885147.167,2725,67,599616014682.6282,2761.62646484375
4,599616014721.0897,1780936885147.171,8106,68,599616014690.3204,2769.3187255859375
4,599616014721.0897,1780936885147.175,-3336,69,599616014698.0128,2777.0111083984375
4,599616014721.0897,1780936885147.179,8285,70,599616014705.7051,2784.703369140625
4,599616014721.0897,1780936885147.1829,2648,71,599616014713.3975,2792.395751953125
4,599616014721.0897,1780936885147.187,-383,72,599616014721.0897,2800.0880126953125
5,599616015282.6515,1780936885687.0068,9502,0,599616014728.8053,2807.8035888671875
5,599616015282.6515,1780936885687.0178,-2527,1,599616014736.4977,2815.4959716796875
5,599616015282.6515,1780936885687.021,5729,2,599616014744.19,2823.188232421875
5,599616015282.6515,1780936885687.0242,5669,3,599616014751.8822,2830.8804931640625
5,599616015282.6515,1780936885687.0269,-2688,4,599616014759.5746,2838.5728759765625
5,599616015282.6515,1780936885687.03,9465,5,599616014767.2668,2846.26513671875
5,599616015282.6515,1780936885687.032,-311,6,599616014774.9592,2853.95751953125
5,599616015282.6515,1780936885687.0352,2541,7,599616014782.6515,2861.6497802734375
5,599616015282.6515,1780936885687.0378,8108,8,599616014790.3438,2869.342041015625
5,599616015282.6515,1780936885687.04,-3452,9,599616014798.0361,2877.034423828125
5,599616015282.6515,1780936885687.043,8036,10,599616014805.7284,2884.7266845703125
5,599616015282.6515,1780936885687.0452,2646,11,599616014813.4208,2892.4190673828125
5,599616015282.6515,1780936885687.0479,-536,12,599616014821.113,2900.111328125
5,599616015282.6515,1780936885687.051,9426,13,599616014828.8053,2907.8035888671875
5,599616015282.6515,1780936885687.053,-2637,14,599616014836.4977,2915.4959716796875
5,599616015282.6515,1780936885687.0562,5434,15,599616014844.19,2923.188232421875
5,599616015282.6515,1780936885687.0588,5648,16,599616014851.8822,2930.8804931640625
5,599616015282.6515,1780936885687.0771,-2774,17,599616014859.5746,2938.5728759765625
5,599616015282.6515,1780936885687.0798,9372,18,599616014867.2668,2946.26513671875
5,599616015282.6515,1780936885687.082,-404,19,599616014874.9592,2953.95751953125
5,599616015282.6515,1780936885687.085,2246,20,599616014882.6515,2961.6497802734375
5,599616015282.6515,1780936885687.088,8059,21,599616014890.3438,2969.342041015625
5,599616015282.6515,1780936885687.092,-3619,22,599616014898.0361,2977.034423828125
5,599616015282.6515,1780936885687.094,7804,23,599616014905.7284,2984.7266845703125
5,599616015282.6515,1780936885687.0972,2499,24,599616014913.4208,2992.4190673828125
5,599616015282.6515,1780936885687.0999,-1017,25,599616014921.113,3000.111328125
5,599616015282.6515,1780936885687.103,9249,26,599616014928.8053,3007.8035888671875
5,599616015282.6515,1780936885687.106,-2692,27,599616014936.4977,3015.4959716796875
5,599616015282.6515,1780936885687.109,5153,28,599616014944.19,3023.188232421875
5,599616015282.6515,1780936885687.112,5566,29,599616014951.8822,3030.8804931640625
5,599616015282.6515,1780936885687.115,-3039,30,599616014959.5746,3038.5728759765625
5,599616015282.6515,1780936885687.1182,9179,31,599616014967.2668,3046.26513671875
5,599616015282.6515,1780936885687.1208,-490,32,599616014974.9592,3053.95751953125
5,599616015282.6515,1780936885687.123,1884,33,599616014982.6515,3061.6497802734375
5,599616015282.6515,1780936885687.126,7973,34,599616014990.3438,3069.342041015625
5,599616015282.6515,1780936885687.129,-3740,35,599616014998.0361,3077.034423828125
5,599616015282.6515,1780936885687.134,7588,36,599616015005.7284,3084.7266845703125
5,599616015282.6515,1780936885687.137,2525,37,599616015013.4208,3092.4190673828125
5,599616015282.6515,1780936885687.14,-1261,38,599616015021.113,3100.111328125
5,599616015282.6515,1780936885687.143,9061,39,599616015028.8053,3107.8035888671875
5,599616015282.6515,1780936885687.146,-2769,40,599616015036.4977,3115.4959716796875
5,599616015282.6515,1780936885687.1482,4953,41,599616015044.19,3123.188232421875
5,599616015282.6515,1780936885687.151,5527,42,599616015051.8822,3130.8804931640625
5,599616015282.6515,1780936885687.154,-3262,43,599616015059.5746,3138.5728759765625
5,599616015282.6515,1780936885687.157,9056,44,599616015067.2668,3146.26513671875
5,599616015282.6515,1780936885687.16,-453,45,599616015074.9592,3153.95751953125
5,599616015282.6515,1780936885687.163,1607,46,599616015082.6515,3161.6497802734375
5,599616015282.6515,1780936885687.166,7825,47,599616015090.3438,3169.342041015625
5,599616015282.6515,1780936885687.168,-3914,48,599616015098.0361,3177.034423828125
5,599616015282.6515,1780936885687.171,7369,49,599616015105.7284,3184.7266845703125
5,599616015282.6515,1780936885687.174,2499,50,599616015113.4208,3192.4190673828125
5,599616015282.6515,1780936885687.177,-1459,51,599616015121.113,3200.111328125
5,599616015282.6515,1780936885687.18,8989,52,599616015128.8053,3207.8035888671875
5,599616015282.6515,1780936885687.182,-2915,53,599616015136.4977,3215.4959716796875
5,599616015282.6515,1780936885687.185,4649,54,599616015144.19,3223.188232421875
5,599616015282.6515,1780936885687.188,5506,55,599616015151.8822,3230.8804931640625
5,599616015282.6515,1780936885687.191,-3496,56,599616015159.5746,3238.5728759765625
5,599616015282.6515,1780936885687.194,8838,57,599616015167.2668,3246.26513671875
5,599616015282.6515,1780936885687.197,-483,58,599616015174.9592,3253.95751953125
5,599616015282.6515,1780936885687.1992,1410,59,599616015182.6515,3261.6497802734375
5,599616015282.6515,1780936885687.202,7846,60,599616015190.3438,3269.342041015625
5,599616015282.6515,1780936885687.207,-4042,61,599616015198.0361,3277.034423828125
5,599616015282.6515,1780936885687.209,7123,62,599616015205.7284,3284.7266845703125
5,599616015282.6515,1780936885687.212,2555,63,599616015213.4208,3292.4190673828125
5,599616015282.6515,1780936885687.215,-1582,64,599616015221.113,3300.111328125
5,599616015282.6515,1780936885687.217,8954,65,599616015228.8053,3307.8035888671875
5,599616015282.6515,1780936885687.2202,-2908,66,599616015236.4977,3315.4959716796875
5,599616015282.6515,1780936885687.223,4453,67,599616015244.19,3323.188232421875
5,599616015282.6515,1780936885687.226,5536,68,599616015251.8822,3330.8804931640625
5,599616015282.6515,1780936885687.229,-3629,69,599616015259.5746,3338.5728759765625
5,599616015282.6515,1780936885687.232,8670,70,599616015267.2668,3346.26513671875
5,599616015282.6515,1780936885687.234,-490,71,599616015274.9592,3353.95751953125
5,599616015282.6515,1780936885687.237,1215,72,599616015282.6515,3361.6497802734375
6,599616015844.2183,1780936886273.324,7846,0,599616015290.3721,3369.370361328125
6,599616015844.2183,1780936886273.35,-4040,1,599616015298.0645,3377.062744140625
6,599616015844.2183,1780936886273.353,7044,2,599616015305.7567,3384.7550048828125
6,599616015844.2183,1780936886273.356,2578,3,599616015313.449,3392.447265625
6,599616015844.2183,1780936886273.3591,-1789,4,599616015321.1414,3400.1396484375
6,599616015844.2183,1780936886273.3618,8896,5,599616015328.8336,3407.8319091796875
6,599616015844.2183,1780936886273.366,-3015,6,599616015336.526,3415.5242919921875
6,599616015844.2183,1780936886273.3691,4140,7,599616015344.2183,3423.216552734375
6,599616015844.2183,1780936886273.371,5566,8,599616015351.9105,3430.9088134765625
6,599616015844.2183,1780936886273.374,-3691,9,599616015359.6029,3438.6011962890625
6,599616015844.2183,1780936886273.377,8582,10,599616015367.2952,3446.29345703125
6,599616015844.2183,1780936886273.3801,-501,11,599616015374.9875,3453.98583984375
6,599616015844.2183,1780936886273.3828,957,12,599616015382.6798,3461.6781005859375
6,599616015844.2183,1780936886273.385,7801,13,599616015390.3721,3469.370361328125
6,599616015844.2183,1780936886273.388,-4151,14,599616015398.0645,3477.062744140625
6,599616015844.2183,1780936886273.391,6840,15,599616015405.7567,3484.7550048828125
6,599616015844.2183,1780936886273.394,2602,16,599616015413.449,3492.447265625
6,599616015844.2183,1780936886273.396,-1953,17,599616015421.1414,3500.1396484375
6,599616015844.2183,1780936886273.3992,8903,18,599616015428.8336,3507.8319091796875
6,599616015844.2183,1780936886273.405,-2948,19,599616015436.526,3515.5242919921875
6,599616015844.2183,1780936886273.407,3945,20,599616015444.2183,3523.216552734375
6,599616015844.2183,1780936886273.4102,5532,21,599616015451.9105,3530.9088134765625
6,599616015844.2183,1780936886273.4128,-3852,22,599616015459.6029,3538.6011962890625
6,599616015844.2183,1780936886273.415,8485,23,599616015467.2952,3546.29345703125
6,599616015844.2183,1780936886273.418,-476,24,599616015474.9875,3553.98583984375
6,599616015844.2183,1780936886273.4211,720,25,599616015482.6798,3561.6781005859375
6,599616015844.2183,1780936886273.4238,7785,26,599616015490.3721,3569.370361328125
6,599616015844.2183,1780936886273.427,-4212,27,599616015498.0645,3577.062744140625
6,599616015844.2183,1780936886273.429,6637,28,599616015505.7567,3584.7550048828125
6,599616015844.2183,1780936886273.4321,2585,29,599616015513.449,3592.447265625
6,599616015844.2183,1780936886273.435,-2207,30,599616015521.1414,3600.1396484375
6,599616015844.2183,1780936886273.438,8749,31,599616015528.8336,3607.8319091796875
6,599616015844.2183,1780936886273.44,-3018,32,599616015536.526,3615.5242919921875
6,599616015844.2183,1780936886273.4429,3738,33,599616015544.2183,3623.216552734375
6,599616015844.2183,1780936886273.446,5569,34,599616015551.9105,3630.9088134765625
6,599616015844.2183,1780936886273.449,-4063,35,599616015559.6029,3638.6011962890625
6,599616015844.2183,1780936886273.4521,8187,36,599616015567.2952,3646.29345703125
6,599616015844.2183,1780936886273.4539,-631,37,599616015574.9875,3653.98583984375
6,599616015844.2183,1780936886273.457,306,38,599616015582.6798,3661.6781005859375
6,599616015844.2183,1780936886273.46,7602,39,599616015590.3721,3669.370361328125
6,599616015844.2183,1780936886273.4622,-4405,40,599616015598.0645,3677.062744140625
6,599616015844.2183,1780936886273.4648,6352,41,599616015605.7567,3684.7550048828125
6,599616015844.2183,1780936886273.468,2581,42,599616015613.449,3692.447265625
6,599616015844.2183,1780936886273.4712,-2420,43,599616015621.1414,3700.1396484375
6,599616015844.2183,1780936886273.4731,8584,44,599616015628.8336,3707.8319091796875
6,599616015844.2183,1780936886273.4758,-3118,45,599616015636.526,3715.5242919921875
6,599616015844.2183,1780936886273.479,3492,46,599616015644.2183,3723.216552734375
6,599616015844.2183,1780936886273.4958,5552,47,599616015651.9105,3730.9088134765625
6,599616015844.2183,1780936886273.507,-4196,48,599616015659.6029,3738.6011962890625
6,599616015844.2183,1780936886273.511,8101,49,599616015667.2952,3746.29345703125
6,599616015844.2183,1780936886273.514,-525,50,599616015674.9875,3753.98583984375
6,599616015844.2183,1780936886273.5168,255,51,599616015682.6798,3761.6781005859375
6,599616015844.2183,1780936886273.521,7706,52,599616015690.3721,3769.370361328125
6,599616015844.2183,1780936886273.5232,-4423,53,599616015698.0645,3777.062744140625
6,599616015844.2183,1780936886273.526,6238,54,599616015705.7567,3784.7550048828125
6,599616015844.2183,1780936886273.535,2685,55,599616015713.449,3792.447265625
6,599616015844.2183,1780936886273.603,-2560,56,599616015721.1414,3800.1396484375
6,599616015844.2183,1780936886273.606,8580,57,599616015728.8336,3807.8319091796875
6,599616015844.2183,1780936886273.609,-3066,58,599616015736.526,3815.5242919921875
6,599616015844.2183,1780936886273.611,3245,59,599616015744.2183,3823.216552734375
6,599616015844.2183,1780936886273.677,5573,60,599616015751.9105,3830.9088134765625
6,599616015844.2183,1780936886273.681,-4233,61,599616015759.6029,3838.6011962890625
6,599616015844.2183,1780936886273.717,8011,62,599616015767.2952,3846.29345703125
6,599616015844.2183,1780936886273.731,-457,63,599616015774.9875,3853.98583984375
6,599616015844.2183,1780936886273.7688,125,64,599616015782.6798,3861.6781005859375
6,599616015844.2183,1780936886273.7761,7729,65,599616015790.3721,3869.370361328125
6,599616015844.2183,1780936886273.7788,-4470,66,599616015798.0645,3877.062744140625
6,599616015844.2183,1780936886273.782,6068,67,599616015805.7567,3884.7550048828125
6,599616015844.2183,1780936886273.7852,2718,68,599616015813.449,3892.447265625
6,599616015844.2183,1780936886273.787,-2720,69,599616015821.1414,3900.1396484375
6,599616015844.2183,1780936886273.7898,8566,70,599616015828.8336,3907.8319091796875
6,599616015844.2183,1780936886273.792,-2997,71,599616015836.526,3915.5242919921875
6,599616015844.2183,1780936886273.795,3113,72,599616015844.2183,3923.216552734375
7,599616016405.785,1780936886812.881,5599,0,599616015851.9388,3930.9371337890625
7,599616016405.785,1780936886812.885,-4484,1,599616015859.6312,3938.6295166015625
7,599616016405.785,1780936886812.887,7797,2,599616015867.3235,3946.32177734375
7,599616016405.785,1780936886812.905,-385,3,599616015875.0157,3954.0140380859375
7,599616016405.785,1780936886812.9111,-123,4,599616015882.7081,3961.7064208984375
7,599616016405.785,1780936886812.915,7634,5,599616015890.4004,3969.398681640625
7,599616016405.785,1780936886812.918,-4488,6,599616015898.0928,3977.091064453125
7,599616016405.785,1780936886812.922,5936,7,599616015905.785,3984.7833251953125
7,599616016405.785,1780936886812.925,2723,8,599616015913.4773,3992.4755859375
7,599616016405.785,1780936886812.928,-3041,9,599616015921.1697,4000.16796875
7,599616016405.785,1780936886812.9321,8357,10,599616015928.8619,4007.8602294921875
7,599616016405.785,1780936886812.935,-2957,11,599616015936.5543,4015.5526123046875
7,599616016405.785,1780936886812.938,2960,12,599616015944.2466,4023.244873046875
7,599616016405.785,1780936886812.94,5599,13,599616015951.9388,4030.9371337890625
7,599616016405.785,1780936886812.9421,-4495,14,599616015959.6312,4038.6295166015625
7,599616016405.785,1780936886812.9438,7818,15,599616015967.3235,4046.32177734375
7,599616016405.785,1780936886812.946,-376,16,599616015975.0157,4054.0140380859375
7,599616016405.785,1780936886812.949,-381,17,599616015982.7081,4061.7064208984375
7,599616016405.785,1780936886812.9512,7634,18,599616015990.4004,4069.398681640625
7,599616016405.785,1780936886812.953,-4607,19,599616015998.0928,4077.091064453125
7,599616016405.785,1780936886812.9548,5636,20,599616016005.785,4084.7833251953125
7,599616016405.785,1780936886812.957,2683,21,599616016013.4773,4092.4755859375
7,599616016405.785,1780936886812.96,-3222,22,599616016021.1697,4100.16796875
7,599616016405.785,1780936886812.9622,8341,23,599616016028.8619,4107.8602294921875
7,599616016405.785,1780936886813.0479,-2978,24,599616016036.5543,4115.5526123046875
7,599616016405.785,1780936886813.052,2681,25,599616016044.2466,4123.244873046875
7,599616016405.785,1780936886813.0542,5604,26,599616016051.9388,4130.9371337890625
7,599616016405.785,1780936886813.056,-4651,27,599616016059.6312,4138.6295166015625
7,599616016405.785,1780936886813.0579,7650,28,599616016067.3235,4146.32177734375
7,599616016405.785,1780936886813.06,-325,29,599616016075.0157,4154.0140380859375
7,599616016405.785,1780936886813.062,-569,30,599616016082.7081,4161.7064208984375
7,599616016405.785,1780936886813.065,7650,31,599616016090.4004,4169.398681640625
7,599616016405.785,1780936886813.067,-4649,32,599616016098.0928,4177.091064453125
7,599616016405.785,1780936886813.07,5420,33,599616016105.785,4184.7833251953125
7,599616016405.785,1780936886813.072,2820,34,599616016113.4773,4192.4755859375
7,599616016405.785,1780936886813.0742,-3215,35,599616016121.1697,4200.16796875
7,599616016405.785,1780936886813.076,8317,36,599616016128.8619,4207.8602294921875
7,599616016405.785,1780936886813.078,-3043,37,599616016136.5543,4215.5526123046875
7,599616016405.785,1780936886813.081,2476,38,599616016144.2466,4223.244873046875
7,599616016405.785,1780936886813.083,5764,39,599616016151.9388,4230.9371337890625
7,599616016405.785,1780936886813.097,-4711,40,599616016159.6312,4238.6295166015625
7,599616016405.785,1780936886813.104,7516,41,599616016167.3235,4246.32177734375
7,599616016405.785,1780936886813.112,-195,42,599616016175.0157,4254.0140380859375
7,599616016405.785,1780936886813.116,-764,43,599616016182.7081,4261.7064208984375
7,599616016405.785,1780936886813.118,7571,44,599616016190.4004,4269.398681640625
7,599616016405.785,1780936886813.121,-4632,45,599616016198.0928,4277.091064453125
7,599616016405.785,1780936886813.124,5318,46,599616016205.785,4284.7833251953125
7,599616016405.785,1780936886813.127,2827,47,599616016213.4773,4292.4755859375
7,599616016405.785,1780936886813.129,-3427,48,599616016221.1697,4300.16796875
7,599616016405.785,1780936886813.132,8275,49,599616016228.8619,4307.8602294921875
7,599616016405.785,1780936886813.134,-3006,50,599616016236.5543,4315.5526123046875
7,599616016405.785,1780936886813.137,2239,51,599616016244.2466,4323.244873046875
7,599616016405.785,1780936886813.139,5755,52,599616016251.9388,4330.9371337890625
7,599616016405.785,1780936886813.141,-4832,53,599616016259.6312,4338.6295166015625
7,599616016405.785,1780936886813.143,7358,54,599616016267.3235,4346.32177734375
7,599616016405.785,1780936886813.145,-234,55,599616016275.0157,4354.0140380859375
7,599616016405.785,1780936886813.147,-1064,56,599616016282.7081,4361.7064208984375
7,599616016405.785,1780936886813.149,7551,57,599616016290.4004,4369.398681640625
7,599616016405.785,1780936886813.151,-4637,58,599616016298.0928,4377.091064453125
7,599616016405.785,1780936886813.153,5132,59,599616016305.785,4384.7833251953125
7,599616016405.785,1780936886813.156,2881,60,599616016313.4773,4392.4755859375
7,599616016405.785,1780936886813.158,-3610,61,599616016321.1697,4400.16796875
7,599616016405.785,1780936886813.16,8180,62,599616016328.8619,4407.8602294921875
7,599616016405.785,1780936886813.162,-2960,63,599616016336.5543,4415.5526123046875
7,599616016405.785,1780936886813.164,2019,64,599616016344.2466,4423.244873046875
7,599616016405.785,1780936886813.166,5750,65,599616016351.9388,4430.9371337890625
7,599616016405.785,1780936886813.17,-4920,66,599616016359.6312,4438.6295166015625
7,599616016405.785,1780936886813.172,7246,67,599616016367.3235,4446.32177734375
7,599616016405.785,1780936886813.174,-134,68,599616016375.0157,4454.0140380859375
7,599616016405.785,1780936886813.176,-1161,69,599616016382.7081,4461.7064208984375
7,599616016405.785,1780936886813.178,7604,70,599616016390.4004,4469.398681640625
7,599616016405.785,1780936886813.245,-4716,71,599616016398.0928,4477.091064453125
7,599616016405.785,1780936886813.2588,4918,72,599616016405.785,4484.7833251953125
8,599616016967.3518,1780936887398.766,2990,0,599616016413.5056,4492.50390625
8,599616016967.3518,1780936887398.778,-3756,1,599616016421.198,4500.1962890625
8,599616016967.3518,1780936887398.78,8090,2,599616016428.8903,4507.8885498046875
8,599616016967.3518,1780936887398.783,-2936,3,599616016436.5825,4515.580810546875
8,599616016967.3518,1780936887398.7861,1819,4,599616016444.2749,4523.273193359375
8,599616016967.3518,1780936887398.788,5794,5,599616016451.9672,4530.9654541015625
8,599616016967.3518,1780936887398.791,-5144,6,599616016459.6595,4538.6578369140625
8,599616016967.3518,1780936887398.793,6926,7,599616016467.3518,4546.35009765625
8,599616016967.3518,1780936887398.795,-41,8,599616016475.0441,4554.0423583984375
8,599616016967.3518,1780936887398.802,-1270,9,599616016482.7365,4561.7347412109375
8,599616016967.3518,1780936887398.804,7590,10,599616016490.4287,4569.427001953125
8,599616016967.3518,1780936887398.8062,-4683,11,599616016498.1211,4577.119384765625
8,599616016967.3518,1780936887398.808,4804,12,599616016505.8134,4584.8116455078125
8,599616016967.3518,1780936887398.8098,3097,13,599616016513.5056,4592.50390625
8,599616016967.3518,1780936887398.812,-3852,14,599616016521.198,4600.1962890625
8,599616016967.3518,1780936887398.814,8052,15,599616016528.8903,4607.8885498046875
8,599616016967.3518,1780936887398.8162,-2855,16,599616016536.5825,4615.580810546875
8,599616016967.3518,1780936887398.8188,1684,17,599616016544.2749,4623.273193359375
8,599616016967.3518,1780936887398.821,5908,18,599616016551.9672,4630.9654541015625
8,599616016967.3518,1780936887398.823,-5032,19,599616016559.6595,4638.6578369140625
8,599616016967.3518,1780936887398.825,7005,20,599616016567.3518,4646.35009765625
8,599616016967.3518,1780936887398.8271,37,21,599616016575.0441,4654.0423583984375
8,599616016967.3518,1780936887398.829,-1475,22,599616016582.7365,4661.7347412109375
8,599616016967.3518,1780936887398.8308,7650,23,599616016590.4287,4669.427001953125
8,599616016967.3518,1780936887398.833,-4711,24,599616016598.1211,4677.119384765625
8,599616016967.3518,1780936887398.835,4598,25,599616016605.8134,4684.8116455078125
8,599616016967.3518,1780936887398.8372,3222,26,599616016613.5056,4692.50390625
8,599616016967.3518,1780936887398.8398,-3970,27,599616016621.198,4700.1962890625
8,599616016967.3518,1780936887398.842,7997,28,599616016628.8903,4707.8885498046875
8,599616016967.3518,1780936887398.844,-2778,29,599616016636.5825,4715.580810546875
8,599616016967.3518,1780936887398.852,1480,30,599616016644.2749,4723.273193359375
8,599616016967.3518,1780936887398.854,5945,31,599616016651.9672,4730.9654541015625
8,599616016967.3518,1780936887398.856,-5123,32,599616016659.6595,4738.6578369140625
8,599616016967.3518,1780936887398.8591,6893,33,599616016667.3518,4746.35009765625
8,599616016967.3518,1780936887398.8608,144,34,599616016675.0441,4754.0423583984375
8,599616016967.3518,1780936887398.863,-1700,35,599616016682.7365,4761.7347412109375
8,599616016967.3518,1780936887398.865,7683,36,599616016690.4287,4769.427001953125
8,599616016967.3518,1780936887398.867,-4635,37,599616016698.1211,4777.119384765625
8,599616016967.3518,1780936887398.8691,4442,38,599616016705.8134,4784.8116455078125
8,599616016967.3518,1780936887398.8708,3322,39,599616016713.5056,4792.50390625
8,599616016967.3518,1780936887398.873,-4149,40,599616016721.198,4800.1962890625
8,599616016967.3518,1780936887398.875,7943,41,599616016728.8903,4807.8885498046875
8,599616016967.3518,1780936887398.877,-2720,42,599616016736.5825,4815.580810546875
8,599616016967.3518,1780936887398.88,1157,43,599616016744.2749,4823.273193359375
8,599616016967.3518,1780936887398.8818,6008,44,599616016751.9672,4830.9654541015625
8,599616016967.3518,1780936887398.884,-5157,45,599616016759.6595,4838.6578369140625
8,599616016967.3518,1780936887398.886,6689,46,599616016767.3518,4846.35009765625
8,599616016967.3518,1780936887398.8882,113,47,599616016775.0441,4854.0423583984375
8,599616016967.3518,1780936887398.8901,-2074,48,599616016782.7365,4861.7347412109375
8,599616016967.3518,1780936887398.8918,7623,49,599616016790.4287,4869.427001953125
8,599616016967.3518,1780936887398.894,-4614,50,599616016798.1211,4877.119384765625
8,599616016967.3518,1780936887398.896,4151,51,599616016805.8134,4884.8116455078125
8,599616016967.3518,1780936887398.898,3371,52,599616016813.5056,4892.50390625
8,599616016967.3518,1780936887398.901,-4286,53,599616016821.198,4900.1962890625
8,599616016967.3518,1780936887398.9028,7722,54,599616016828.8903,4907.8885498046875
8,599616016967.3518,1780936887398.905,-2685,55,599616016836.5825,4915.580810546875
8,599616016967.3518,1780936887398.907,1040,56,599616016844.2749,4923.273193359375
8,599616016967.3518,1780936887398.9092,5989,57,599616016851.9672,4930.9654541015625
8,599616016967.3518,1780936887398.911,-5281,58,599616016859.6595,4938.6578369140625
8,599616016967.3518,1780936887398.9128,6579,59,599616016867.3518,4946.35009765625
8,599616016967.3518,1780936887398.915,281,60,599616016875.0441,4954.0423583984375
8,599616016967.3518,1780936887398.917,-2118,61,599616016882.7365,4961.7347412109375
8,599616016967.3518,1780936887398.9192,7627,62,599616016890.4287,4969.427001953125
8,599616016967.3518,1780936887398.9219,-4665,63,599616016898.1211,4977.119384765625
8,599616016967.3518,1780936887398.924,4005,64,599616016905.8134,4984.8116455078125
8,599616016967.3518,1780936887398.926,3466,65,599616016913.5056,4992.50390625
8,599616016967.3518,1780936887398.928,-4402,66,599616016921.198,5000.1962890625
8,599616016967.3518,1780936887398.9302,7741,67,599616016928.8903,5007.8885498046875
8,599616016967.3518,1780936887398.932,-2592,68,599616016936.5825,5015.580810546875
8,599616016967.3518,1780936887398.9338,820,69,599616016944.2749,5023.273193359375
8,599616016967.3518,1780936887398.936,6052,70,599616016951.9672,5030.9654541015625
8,599616016967.3518,1780936887398.938,-5404,71,599616016959.6595,5038.6578369140625
8,599616016967.3518,1780936887398.9402,6340,72,599616016967.3518,5046.35009765625
9,599616017528.8983,1780936888025.678,434,0,599616016975.0521,5054.0504150390625
9,599616017528.8983,1780936888025.692,-2239,1,599616016982.7445,5061.7427978515625
9,599616017528.8983,1780936888025.696,7569,2,599616016990.4368,5069.43505859375
9,599616017528.8983,1780936888025.699,-4646,3,599616016998.129,5077.1273193359375
9,599616017528.8983,1780936888025.701,3808,4,599616017005.8214,5084.8197021484375
9,599616017528.8983,1780936888025.7039,3554,5,599616017013.5137,5092.511962890625
9,599616017528.8983,1780936888025.707,-4412,6,599616017021.206,5100.204345703125
9,599616017528.8983,1780936888025.709,7727,7,599616017028.8983,5107.8966064453125
9,599616017528.8983,1780936888025.715,-2497,8,599616017036.5906,5115.5888671875
9,599616017528.8983,1780936888025.718,738,9,599616017044.283,5123.28125
9,599616017528.8983,1780936888025.7212,6217,10,599616017051.9752,5130.9735107421875
9,599616017528.8983,1780936888025.723,-5336,11,599616017059.6676,5138.6658935546875
9,599616017528.8983,1780936888025.726,6305,12,599616017067.3599,5146.358154296875
9,599616017528.8983,1780936888025.729,520,13,599616017075.0521,5154.0504150390625
9,599616017528.8983,1780936888025.7312,-2376,14,599616017082.7445,5161.7427978515625
9,599616017528.8983,1780936888025.734,7644,15,599616017090.4368,5169.43505859375
9,599616017528.8983,1780936888025.7412,-4602,16,599616017098.129,5177.1273193359375
9,599616017528.8983,1780936888025.743,3675,17,599616017105.8214,5184.8197021484375
9,599616017528.8983,1780936888025.746,3626,18,599616017113.5137,5192.511962890625
9,599616017528.8983,1780936888025.749,-4651,19,599616017121.206,5200.204345703125
9,599616017528.8983,1780936888025.7512,7611,20,599616017128.8983,5207.8966064453125
9,599616017528.8983,1780936888025.754,-2448,21,599616017136.5906,5215.5888671875
9,599616017528.8983,1780936888025.761,434,22,599616017144.283,5223.28125
9,599616017528.8983,1780936888025.7659,6194,23,599616017151.9752,5230.9735107421875
9,599616017528.8983,1780936888025.769,-5418,24,599616017159.6676,5238.6658935546875
9,599616017528.8983,1780936888025.771,6096,25,599616017167.3599,5246.358154296875
9,599616017528.8983,1780936888025.774,539,26,599616017175.0521,5254.0504150390625
9,599616017528.8983,1780936888025.777,-2662,27,599616017182.7445,5261.7427978515625
9,599616017528.8983,1780936888025.779,7525,28,599616017190.4368,5269.43505859375
9,599616017528.8983,1780936888025.7822,-4598,29,599616017198.129,5277.1273193359375
9,599616017528.8983,1780936888025.784,3487,30,599616017205.8214,5284.8197021484375
9,599616017528.8983,1780936888025.787,3684,31,599616017213.5137,5292.511962890625
9,599616017528.8983,1780936888025.79,-4744,32,599616017221.206,5300.204345703125
9,599616017528.8983,1780936888025.792,7588,33,599616017228.8983,5307.8966064453125
9,599616017528.8983,1780936888025.795,-2341,34,599616017236.5906,5315.5888671875
9,599616017528.8983,1780936888025.7969,241,35,599616017244.283,5323.28125
9,599616017528.8983,1780936888025.8,6229,36,599616017251.9752,5330.9735107421875
9,599616017528.8983,1780936888025.803,-5457,37,599616017259.6676,5338.6658935546875
9,599616017528.8983,1780936888025.805,5985,38,599616017267.3599,5346.358154296875
9,599616017528.8983,1780936888025.808,631,39,599616017275.0521,5354.0504150390625
9,599616017528.8983,1780936888025.81,-2848,40,599616017282.7445,5361.7427978515625
9,599616017528.8983,1780936888025.813,7553,41,599616017290.4368,5369.43505859375
9,599616017528.8983,1780936888025.815,-4546,42,599616017298.129,5377.1273193359375
9,599616017528.8983,1780936888025.818,3280,43,599616017305.8214,5384.8197021484375
9,599616017528.8983,1780936888025.82,3749,44,599616017313.5137,5392.511962890625
9,599616017528.8983,1780936888025.823,-4902,45,599616017321.206,5400.204345703125
9,599616017528.8983,1780936888025.825,7446,46,599616017328.8983,5407.8966064453125
9,599616017528.8983,1780936888025.828,-2341,47,599616017336.5906,5415.5888671875
9,599616017528.8983,1780936888025.831,-25,48,599616017344.283,5423.28125
9,599616017528.8983,1780936888025.833,6277,49,599616017351.9752,5430.9735107421875
9,599616017528.8983,1780936888025.836,-5536,50,599616017359.6676,5438.6658935546875
9,599616017528.8983,1780936888025.838,5738,51,599616017367.3599,5446.358154296875
9,599616017528.8983,1780936888025.841,766,52,599616017375.0521,5454.0504150390625
9,599616017528.8983,1780936888025.843,-2929,53,599616017382.7445,5461.7427978515625
9,599616017528.8983,1780936888025.846,7516,54,599616017390.4368,5469.43505859375
9,599616017528.8983,1780936888025.849,-4537,55,599616017398.129,5477.1273193359375
9,599616017528.8983,1780936888025.851,3131,56,599616017405.8214,5484.8197021484375
9,599616017528.8983,1780936888025.854,3905,57,599616017413.5137,5492.511962890625
9,599616017528.8983,1780936888025.856,-4932,58,599616017421.206,5500.204345703125
9,599616017528.8983,1780936888025.8591,7416,59,599616017428.8983,5507.8966064453125
9,599616017528.8983,1780936888025.861,-2190,60,599616017436.5906,5515.5888671875
9,599616017528.8983,1780936888025.8638,-125,61,599616017444.283,5523.28125
9,599616017528.8983,1780936888025.867,6382,62,599616017451.9752,5530.9735107421875
9,599616017528.8983,1780936888025.869,-5487,63,599616017459.6676,5538.6658935546875
9,599616017528.8983,1780936888025.872,5741,64,599616017467.3599,5546.358154296875
9,599616017528.8983,1780936888025.8738,922,65,599616017475.0521,5554.0504150390625
9,599616017528.8983,1780936888025.877,-3138,66,599616017482.7445,5561.7427978515625
9,599616017528.8983,1780936888025.8801,7548,67,599616017490.4368,5569.43505859375
9,599616017528.8983,1780936888025.882,-4463,68,599616017498.129,5577.1273193359375
9,599616017528.8983,1780936888025.885,2881,69,599616017505.8214,5584.8197021484375
9,599616017528.8983,1780936888025.887,3989,70,599616017513.5137,5592.511962890625
9,599616017528.8983,1780936888025.8901,-5034,71,599616017521.206,5600.204345703125
9,599616017528.8983,1780936888025.892,7290,72,599616017528.8983,5607.8966064453125
10,599616018090.4855,1780936888475.7332,-2142,0,599616017536.6393,5615.6375732421875
10,599616018090.4855,1780936888475.7432,-413,1,599616017544.3317,5623.3299560546875
10,599616018090.4855,1780936888475.7458,6354,2,599616017552.0239,5631.022216796875
10,599616018090.4855,1780936888475.749,-5511,3,599616017559.7162,5638.7144775390625
10,599616018090.4855,1780936888475.751,5580,4,599616017567.4086,5646.4068603515625
10,599616018090.4855,1780936888475.759,1010,5,599616017575.1008,5654.09912109375
10,599616018090.4855,1780936888475.761,-3241,6,599616017582.7932,5661.79150390625
10,599616018090.4855,1780936888475.7632,7569,7,599616017590.4855,5669.4837646484375
10,599616018090.4855,1780936888475.765,-4463,8,599616017598.1777,5677.176025390625
10,599616018090.4855,1780936888475.7668,2683,9,599616017605.8701,5684.868408203125
10,599616018090.4855,1780936888475.77,4107,10,599616017613.5624,5692.5606689453125
10,599616018090.4855,1780936888475.772,-5132,11,599616017621.2548,5700.2530517578125
10,599616018090.4855,1780936888475.7742,7202,12,599616017628.947,5707.9453125
10,599616018090.4855,1780936888475.776,-2012,13,599616017636.6393,5715.6375732421875
10,599616018090.4855,1780936888475.778,-525,14,599616017644.3317,5723.3299560546875
10,599616018090.4855,1780936888475.781,6435,15,599616017652.0239,5731.022216796875
10,599616018090.4855,1780936888475.7832,-5597,16,599616017659.7162,5738.7144775390625
10,599616018090.4855,1780936888475.785,5378,17,599616017667.4086,5746.4068603515625
10,599616018090.4855,1780936888475.7869,1080,18,599616017675.1008,5754.09912109375
10,599616018090.4855,1780936888475.79,-3510,19,599616017682.7932,5761.79150390625
10,599616018090.4855,1780936888475.792,7495,20,599616017690.4855,5769.4837646484375
10,599616018090.4855,1780936888475.7942,-4363,21,599616017698.1777,5777.176025390625
10,599616018090.4855,1780936888475.796,2493,22,599616017705.8701,5784.868408203125
10,599616018090.4855,1780936888475.7979,4121,23,599616017713.5624,5792.5606689453125
10,599616018090.4855,1780936888475.801,-5260,24,599616017721.2548,5800.2530517578125
10,599616018090.4855,1780936888475.803,7086,25,599616017728.947,5807.9453125
10,599616018090.4855,1780936888475.805,-1970,26,599616017736.6393,5815.6375732421875
10,599616018090.4855,1780936888475.8079,-789,27,599616017744.3317,5823.3299560546875
10,599616018090.4855,1780936888475.81,6417,28,599616017752.0239,5831.022216796875
10,599616018090.4855,1780936888475.812,-5578,29,599616017759.7162,5838.7144775390625
10,599616018090.4855,1780936888475.8142,5234,30,599616017767.4086,5846.4068603515625
10,599616018090.4855,1780936888475.822,1180,31,599616017775.1008,5854.09912109375
10,599616018090.4855,1780936888475.8242,-3554,32,599616017782.7932,5861.79150390625
10,599616018090.4855,1780936888475.826,7497,33,599616017790.4855,5869.4837646484375
10,599616018090.4855,1780936888475.828,-4386,34,599616017798.1777,5877.176025390625
10,599616018090.4855,1780936888475.83,2309,35,599616017805.8701,5884.868408203125
10,599616018090.4855,1780936888475.833,4228,36,599616017813.5624,5892.5606689453125
10,599616018090.4855,1780936888475.8352,-5332,37,599616017821.2548,5900.2530517578125
10,599616018090.4855,1780936888475.837,7025,38,599616017828.947,5907.9453125
10,599616018090.4855,1780936888475.8389,-1837,39,599616017836.6393,5915.6375732421875
10,599616018090.4855,1780936888475.841,-885,40,599616017844.3317,5923.3299560546875
10,599616018090.4855,1780936888475.844,6503,41,599616017852.0239,5931.022216796875
10,599616018090.4855,1780936888475.846,-5622,42,599616017859.7162,5938.7144775390625
10,599616018090.4855,1780936888475.848,5095,43,599616017867.4086,5946.4068603515625
10,599616018090.4855,1780936888475.85,1317,44,599616017875.1008,5954.09912109375
10,599616018090.4855,1780936888475.852,-3694,45,599616017882.7932,5961.79150390625
10,599616018090.4855,1780936888475.854,7437,46,599616017890.4855,5969.4837646484375
10,599616018090.4855,1780936888475.857,-4442,47,599616017898.1777,5977.176025390625
10,599616018090.4855,1780936888475.859,2044,48,599616017905.8701,5984.868408203125
10,599616018090.4855,1780936888475.861,4326,49,599616017913.5624,5992.5606689453125
10,599616018090.4855,1780936888475.863,-5401,50,599616017921.2548,6000.2530517578125
10,599616018090.4855,1780936888475.865,6879,51,599616017928.947,6007.9453125
10,599616018090.4855,1780936888475.867,-1812,52,599616017936.6393,6015.6375732421875
10,599616018090.4855,1780936888475.8699,-1082,53,599616017944.3317,6023.3299560546875
10,599616018090.4855,1780936888475.872,6540,54,599616017952.0239,6031.022216796875
10,599616018090.4855,1780936888475.874,-5641,55,599616017959.7162,6038.7144775390625
10,599616018090.4855,1780936888475.876,4927,56,599616017967.4086,6046.4068603515625
10,599616018090.4855,1780936888475.878,1375,57,599616017975.1008,6054.09912109375
10,599616018090.4855,1780936888475.881,-3870,58,599616017982.7932,6061.79150390625
10,599616018090.4855,1780936888475.883,7439,59,599616017990.4855,6069.4837646484375
10,599616018090.4855,1780936888475.885,-4275,60,599616017998.1777,6077.176025390625
10,599616018090.4855,1780936888475.887,1960,61,599616018005.8701,6084.868408203125
10,599616018090.4855,1780936888475.889,4381,62,599616018013.5624,6092.5606689453125
10,599616018090.4855,1780936888475.891,-5508,63,599616018021.2548,6100.2530517578125
10,599616018090.4855,1780936888475.894,6819,64,599616018028.947,6107.9453125
10,599616018090.4855,1780936888475.896,-1700,65,599616018036.6393,6115.6375732421875
10,599616018090.4855,1780936888475.898,-1268,66,599616018044.3317,6123.3299560546875
10,599616018090.4855,1780936888475.9,6505,67,599616018052.0239,6131.022216796875
10,599616018090.4855,1780936888475.902,-5796,68,599616018059.7162,6138.7144775390625
10,599616018090.4855,1780936888475.904,4704,69,599616018067.4086,6146.4068603515625
10,599616018090.4855,1780936888475.906,1496,70,599616018075.1008,6154.09912109375
10,599616018090.4855,1780936888475.909,-4079,71,599616018082.7932,6161.79150390625
10,599616018090.4855,1780936888475.911,7302,72,599616018090.4855,6169.4837646484375
11,599616018652.0217,1780936889060.8398,-4205,0,599616018098.1755,6177.173828125
11,599616018652.0217,1780936889060.851,1814,1,599616018105.8679,6184.8662109375
11,599616018652.0217,1780936889060.854,4435,2,599616018113.5602,6192.5584716796875
11,599616018652.0217,1780936889060.8572,-5592,3,599616018121.2524,6200.250732421875
11,599616018652.0217,1780936889060.864,6723,4,599616018128.9448,6207.943115234375
11,599616018652.0217,1780936889060.868,-1584,5,599616018136.6371,6215.6353759765625
11,599616018652.0217,1780936889060.8699,-1394,6,599616018144.3295,6223.3277587890625
11,599616018652.0217,1780936889060.874,6582,7,599616018152.0217,6231.02001953125
11,599616018652.0217,1780936889060.8772,-5659,8,599616018159.714,6238.7122802734375
11,599616018652.0217,1780936889060.88,4690,9,599616018167.4064,6246.4046630859375
11,599616018652.0217,1780936889060.883,1635,10,599616018175.0986,6254.096923828125
11,599616018652.0217,1780936889060.885,-4082,11,599616018182.791,6261.789306640625
11,599616018652.0217,1780936889060.888,7418,12,599616018190.4833,6269.4815673828125
11,599616018652.0217,1780936889060.8909,-4149,13,599616018198.1755,6277.173828125
11,599616018652.0217,1780936889060.893,1682,14,599616018205.8679,6284.8662109375
11,599616018652.0217,1780936889060.896,4646,15,599616018213.5602,6292.5584716796875
11,599616018652.0217,1780936889060.898,-5613,16,599616018221.2524,6300.250732421875
11,599616018652.0217,1780936889060.901,6656,17,599616018228.9448,6307.943115234375
11,599616018652.0217,1780936889060.903,-1414,18,599616018236.6371,6315.6353759765625
11,599616018652.0217,1780936889060.906,-1514,19,599616018244.3295,6323.3277587890625
11,599616018652.0217,1780936889060.909,6668,20,599616018252.0217,6331.02001953125
11,599616018652.0217,1780936889060.911,-5648,21,599616018259.714,6338.7122802734375
11,599616018652.0217,1780936889060.914,4474,22,599616018267.4064,6346.4046630859375
11,599616018652.0217,1780936889060.916,1744,23,599616018275.0986,6354.096923828125
11,599616018652.0217,1780936889060.919,-4163,24,599616018282.791,6361.789306640625
11,599616018652.0217,1780936889060.9219,7388,25,599616018290.4833,6369.4815673828125
11,599616018652.0217,1780936889060.924,-4100,26,599616018298.1755,6377.173828125
11,599616018652.0217,1780936889060.927,1477,27,599616018305.8679,6384.8662109375
11,599616018652.0217,1780936889060.929,4695,28,599616018313.5602,6392.5584716796875
11,599616018652.0217,1780936889060.932,-5687,29,599616018321.2524,6400.250732421875
11,599616018652.0217,1780936889060.934,6568,30,599616018328.9448,6407.943115234375
11,599616018652.0217,1780936889060.937,-1345,31,599616018336.6371,6415.6353759765625
11,599616018652.0217,1780936889060.94,-1740,32,599616018344.3295,6423.3277587890625
11,599616018652.0217,1780936889060.942,6686,33,599616018352.0217,6431.02001953125
11,599616018652.0217,1780936889060.945,-5636,34,599616018359.714,6438.7122802734375
11,599616018652.0217,1780936889060.947,4379,35,599616018367.4064,6446.4046630859375
11,599616018652.0217,1780936889060.95,1940,36,599616018375.0986,6454.096923828125
11,599616018652.0217,1780936889060.953,-4307,37,599616018382.791,6461.789306640625
11,599616018652.0217,1780936889060.955,7288,38,599616018390.4833,6469.4815673828125
11,599616018652.0217,1780936889060.958,-4079,39,599616018398.1755,6477.173828125
11,599616018652.0217,1780936889060.961,1238,40,599616018405.8679,6484.8662109375
11,599616018652.0217,1780936889060.963,4742,41,599616018413.5602,6492.5584716796875
11,599616018652.0217,1780936889060.966,-5766,42,599616018421.2524,6500.250732421875
11,599616018652.0217,1780936889060.968,6454,43,599616018428.9448,6507.943115234375
11,599616018652.0217,1780936889060.971,-1259,44,599616018436.6371,6515.6353759765625
11,599616018652.0217,1780936889060.973,-1988,45,599616018444.3295,6523.3277587890625
11,599616018652.0217,1780936889060.976,6644,46,599616018452.0217,6531.02001953125
11,599616018652.0217,1780936889060.979,-5629,47,599616018459.714,6538.7122802734375
11,599616018652.0217,1780936889060.981,4154,48,599616018467.4064,6546.4046630859375
11,599616018652.0217,1780936889060.984,1909,49,599616018475.0986,6554.096923828125
11,599616018652.0217,1780936889060.986,-4467,50,599616018482.791,6561.789306640625
11,599616018652.0217,1780936889060.989,7293,51,599616018490.4833,6569.4815673828125
11,599616018652.0217,1780936889060.991,-3954,52,599616018498.1755,6577.173828125
11,599616018652.0217,1780936889060.994,1112,53,599616018505.8679,6584.8662109375
11,599616018652.0217,1780936889060.997,4811,54,599616018513.5602,6592.5584716796875
11,599616018652.0217,1780936889060.999,-5794,55,599616018521.2524,6600.250732421875
11,599616018652.0217,1780936889061.002,6442,56,599616018528.9448,6607.943115234375
11,599616018652.0217,1780936889061.004,-1087,57,599616018536.6371,6615.6353759765625
11,599616018652.0217,1780936889061.0098,-2065,58,599616018544.3295,6623.3277587890625
11,599616018652.0217,1780936889061.012,6758,59,599616018552.0217,6631.02001953125
11,599616018652.0217,1780936889061.015,-5562,60,599616018559.714,6638.7122802734375
11,599616018652.0217,1780936889061.018,4084,61,599616018567.4064,6646.4046630859375
11,599616018652.0217,1780936889061.02,2074,62,599616018575.0986,6654.096923828125
11,599616018652.0217,1780936889061.023,-4565,63,599616018582.791,6661.789306640625
11,599616018652.0217,1780936889061.025,7297,64,599616018590.4833,6669.4815673828125
11,599616018652.0217,1780936889061.028,-3812,65,599616018598.1755,6677.173828125
11,599616018652.0217,1780936889061.03,1003,66,599616018605.8679,6684.8662109375
11,599616018652.0217,1780936889061.033,4918,67,599616018613.5602,6692.5584716796875
11,599616018652.0217,1780936889061.035,-5894,68,599616018621.2524,6700.250732421875
11,599616018652.0217,1780936889061.038,6249,69,599616018628.9448,6707.943115234375
11,599616018652.0217,1780936889061.04,-989,70,599616018636.6371,6715.6353759765625
11,599616018652.0217,1780936889061.043,-2156,71,599616018644.3295,6723.3277587890625
11,599616018652.0217,1780936889061.046,6809,72,599616018652.0217,6731.02001953125
12,599616019213.614,1780936889646.463,-5573,0,599616018659.7678,6738.76611328125
12,599616019213.614,1780936889646.4739,3933,1,599616018667.4602,6746.45849609375
12,599616019213.614,1780936889646.478,2202,2,599616018675.1525,6754.1507568359375
12,599616019213.614,1780936889646.481,-4693,3,599616018682.8447,6761.843017578125
12,599616019213.614,1780936889646.483,7258,4,599616018690.5371,6769.535400390625
12,599616019213.614,1780936889646.486,-3740,5,599616018698.2294,6777.2276611328125
12,599616019213.614,1780936889646.489,787,6,599616018705.9218,6784.9200439453125
12,599616019213.614,1780936889646.491,4990,7,599616018713.614,6792.6123046875
12,599616019213.614,1780936889646.494,-5894,8,599616018721.3063,6800.3045654296875
12,599616019213.614,1780936889646.498,6161,9,599616018728.9987,6807.9969482421875
12,599616019213.614,1780936889646.501,-952,10,599616018736.6909,6815.689208984375
12,599616019213.614,1780936889646.503,-2383,11,599616018744.3833,6823.381591796875
12,599616019213.614,1780936889646.506,6849,12,599616018752.0756,6831.0738525390625
12,599616019213.614,1780936889646.508,-5552,13,599616018759.7678,6838.76611328125
12,599616019213.614,1780936889646.511,3726,14,599616018767.4602,6846.45849609375
12,599616019213.614,1780936889646.513,2283,15,599616018775.1525,6854.1507568359375
12,599616019213.614,1780936889646.516,-4825,16,599616018782.8447,6861.843017578125
12,599616019213.614,1780936889646.519,7167,17,599616018790.5371,6869.535400390625
12,599616019213.614,1780936889646.521,-3761,18,599616018798.2294,6877.2276611328125
12,599616019213.614,1780936889646.524,529,19,599616018805.9218,6884.9200439453125
12,599616019213.614,1780936889646.5261,5076,20,599616018813.614,6892.6123046875
12,599616019213.614,1780936889646.529,-5915,21,599616018821.3063,6900.3045654296875
12,599616019213.614,1780936889646.531,6036,22,599616018828.9987,6907.9969482421875
12,599616019213.614,1780936889646.534,-841,23,599616018836.6909,6915.689208984375
12,599616019213.614,1780936889646.5361,-2511,24,599616018844.3833,6923.381591796875
12,599616019213.614,1780936889646.539,6879,25,599616018852.0756,6931.0738525390625
12,599616019213.614,1780936889646.541,-5527,26,599616018859.7678,6938.76611328125
12,599616019213.614,1780936889646.544,3582,27,599616018867.4602,6946.45849609375
12,599616019213.614,1780936889646.546,2420,28,599616018875.1525,6954.1507568359375
12,599616019213.614,1780936889646.549,-4869,29,599616018882.8447,6961.843017578125
12,599616019213.614,1780936889646.5508,7160,30,599616018890.5371,6969.535400390625
12,599616019213.614,1780936889646.554,-3617,31,599616018898.2294,6977.2276611328125
12,599616019213.614,1780936889646.556,469,32,599616018905.9218,6984.9200439453125
12,599616019213.614,1780936889646.559,5181,33,599616018913.614,6992.6123046875
12,599616019213.614,1780936889646.5608,-5964,34,599616018921.3063,7000.3045654296875
12,599616019213.614,1780936889646.564,5999,35,599616018928.9987,7007.9969482421875
12,599616019213.614,1780936889646.566,-659,36,599616018936.6909,7015.689208984375
12,599616019213.614,1780936889646.569,-2641,37,599616018944.3833,7023.381591796875
12,599616019213.614,1780936889646.5708,6940,38,599616018952.0756,7031.0738525390625
12,599616019213.614,1780936889646.574,-5439,39,599616018959.7678,7038.76611328125
12,599616019213.614,1780936889646.576,3482,40,599616018967.4602,7046.45849609375
12,599616019213.614,1780936889646.579,2560,41,599616018975.1525,7054.1507568359375
12,599616019213.614,1780936889646.581,-5011,42,599616018982.8447,7061.843017578125
12,599616019213.614,1780936889646.584,7098,43,599616018990.5371,7069.535400390625
12,599616019213.614,1780936889646.587,-3531,44,599616018998.2294,7077.2276611328125
12,599616019213.614,1780936889646.589,236,45,599616019005.9218,7084.9200439453125
12,599616019213.614,1780936889646.5918,5246,46,599616019013.614,7092.6123046875
12,599616019213.614,1780936889646.594,-5992,47,599616019021.3063,7100.3045654296875
12,599616019213.614,1780936889646.597,5852,48,599616019028.9987,7107.9969482421875
12,599616019213.614,1780936889646.599,-550,49,599616019036.6909,7115.689208984375
12,599616019213.614,1780936889646.6018,-2815,50,599616019044.3833,7123.381591796875
12,599616019213.614,1780936889646.604,6879,51,599616019052.0756,7131.0738525390625
12,599616019213.614,1780936889646.607,-5480,52,599616019059.7678,7138.76611328125
12,599616019213.614,1780936889646.6091,3308,53,599616019067.4602,7146.45849609375
12,599616019213.614,1780936889646.6118,2664,54,599616019075.1525,7154.1507568359375
12,599616019213.614,1780936889646.614,-5123,55,599616019082.8447,7161.843017578125
12,599616019213.614,1780936889646.617,7086,56,599616019090.5371,7169.535400390625
12,599616019213.614,1780936889646.62,-3408,57,599616019098.2294,7177.2276611328125
12,599616019213.614,1780936889646.627,81,58,599616019105.9218,7184.9200439453125
12,599616019213.614,1780936889646.6301,5318,59,599616019113.614,7192.6123046875
12,599616019213.614,1780936889646.6318,-6066,60,599616019121.3063,7200.3045654296875
12,599616019213.614,1780936889646.635,5729,61,599616019128.9987,7207.9969482421875
12,599616019213.614,1780936889646.637,-425,62,599616019136.6909,7215.689208984375
12,599616019213.614,1780936889646.6401,-2985,63,599616019144.3833,7223.381591796875
12,599616019213.614,1780936889646.642,6909,64,599616019152.0756,7231.0738525390625
12,599616019213.614,1780936889646.645,-5434,65,599616019159.7678,7238.76611328125
12,599616019213.614,1780936889646.647,3145,66,599616019167.4602,7246.45849609375
12,599616019213.614,1780936889646.6501,2811,67,599616019175.1525,7254.1507568359375
12,599616019213.614,1780936889646.652,-5220,68,599616019182.8447,7261.843017578125
12,599616019213.614,1780936889646.655,7019,69,599616019190.5371,7269.535400390625
12,599616019213.614,1780936889646.657,-3299,70,599616019198.2294,7277.2276611328125
12,599616019213.614,1780936889646.6602,-111,71,599616019205.9218,7284.9200439453125
12,599616019213.614,1780936889646.662,5378,72,599616019213.614,7292.6123046875
13,599616019775.1757,1780936890187.457,-6040,0,599616019221.3295,7300.3277587890625
13,599616019775.1757,1780936890187.471,5669,1,599616019229.0219,7308.0201416015625
13,599616019775.1757,1780936890187.474,-260,2,599616019236.7141,7315.71240234375
13,599616019775.1757,1780936890187.477,-3087,3,599616019244.4064,7323.4046630859375
13,599616019775.1757,1780936890187.48,6967,4,599616019252.0988,7331.0970458984375
13,599616019775.1757,1780936890187.4832,-5306,5,599616019259.791,7338.789306640625
13,599616019775.1757,1780936890187.4868,3045,6,599616019267.4834,7346.481689453125
13,599616019775.1757,1780936890187.489,2920,7,599616019275.1757,7354.1739501953125
13,599616019775.1757,1780936890187.492,-5257,8,599616019282.8679,7361.8662109375
13,599616019775.1757,1780936890187.4949,7058,9,599616019290.5603,7369.55859375
13,599616019775.1757,1780936890187.498,-3155,10,599616019298.2526,7377.2508544921875
13,599616019775.1757,1780936890187.5,-220,11,599616019305.945,7384.9432373046875
13,599616019775.1757,1780936890187.5032,5529,12,599616019313.6372,7392.635498046875
13,599616019775.1757,1780936890187.5059,-6045,13,599616019321.3295,7400.3277587890625
13,599616019775.1757,1780936890187.508,5513,14,599616019329.0219,7408.0201416015625
13,599616019775.1757,1780936890187.511,-169,15,599616019336.7141,7415.71240234375
13,599616019775.1757,1780936890187.5142,-3224,16,599616019344.4064,7423.4046630859375
13,599616019775.1757,1780936890187.5159,6977,17,599616019352.0988,7431.0970458984375
13,599616019775.1757,1780936890187.519,-5290,18,599616019359.791,7438.789306640625
13,599616019775.1757,1780936890187.521,2864,19,599616019367.4834,7446.481689453125
13,599616019775.1757,1780936890187.5242,3001,20,599616019375.1757,7454.1739501953125
13,599616019775.1757,1780936890187.5269,-5413,21,599616019382.8679,7461.8662109375
13,599616019775.1757,1780936890187.529,6953,22,599616019390.5603,7469.55859375
13,599616019775.1757,1780936890187.532,-3078,23,599616019398.2526,7477.2508544921875
13,599616019775.1757,1780936890187.5369,-388,24,599616019405.945,7484.9432373046875
13,599616019775.1757,1780936890187.54,5624,25,599616019413.6372,7492.635498046875
13,599616019775.1757,1780936890187.542,-6078,26,599616019421.3295,7500.3277587890625
13,599616019775.1757,1780936890187.5452,5369,27,599616019429.0219,7508.0201416015625
13,599616019775.1757,1780936890187.5479,-67,28,599616019436.7141,7515.71240234375
13,599616019775.1757,1780936890187.55,-3389,29,599616019444.4064,7523.4046630859375
13,599616019775.1757,1780936890187.553,7002,30,599616019452.0988,7531.0970458984375
13,599616019775.1757,1780936890187.556,-5269,31,599616019459.791,7538.789306640625
13,599616019775.1757,1780936890187.5579,2655,32,599616019467.4834,7546.481689453125
13,599616019775.1757,1780936890187.561,3136,33,599616019475.1757,7554.1739501953125
13,599616019775.1757,1780936890187.564,-5453,34,599616019482.8679,7561.8662109375
13,599616019775.1757,1780936890187.5662,6935,35,599616019490.5603,7569.55859375
13,599616019775.1757,1780936890187.5688,-2978,36,599616019498.2526,7577.2508544921875
13,599616019775.1757,1780936890187.571,-592,37,599616019505.945,7584.9432373046875
13,599616019775.1757,1780936890187.574,5673,38,599616019513.6372,7592.635498046875
13,599616019775.1757,1780936890187.577,-6129,39,599616019521.3295,7600.3277587890625
13,599616019775.1757,1780936890187.5789,5253,40,599616019529.0219,7608.0201416015625
13,599616019775.1757,1780936890187.582,113,41,599616019536.7141,7615.71240234375
13,599616019775.1757,1780936890187.584,-3515,42,599616019544.4064,7623.4046630859375
13,599616019775.1757,1780936890187.587,7021,43,599616019552.0988,7631.0970458984375
13,599616019775.1757,1780936890187.5898,-5190,44,599616019559.791,7638.789306640625
13,599616019775.1757,1780936890187.592,2497,45,599616019567.4834,7646.481689453125
13,599616019775.1757,1780936890187.595,3289,46,599616019575.1757,7654.1739501953125
13,599616019775.1757,1780936890187.597,-5497,47,599616019582.8679,7661.8662109375
13,599616019775.1757,1780936890187.5999,6877,48,599616019590.5603,7669.55859375
13,599616019775.1757,1780936890187.603,-2871,49,599616019598.2526,7677.2508544921875
13,599616019775.1757,1780936890187.605,-741,50,599616019605.945,7684.9432373046875
13,599616019775.1757,1780936890187.608,5813,51,599616019613.6372,7692.635498046875
13,599616019775.1757,1780936890187.6099,-6082,52,599616019621.3295,7700.3277587890625
13,599616019775.1757,1780936890187.613,5181,53,599616019629.0219,7708.0201416015625
13,599616019775.1757,1780936890187.615,313,54,599616019636.7141,7715.71240234375
13,599616019775.1757,1780936890187.618,-3631,55,599616019644.4064,7723.4046630859375
13,599616019775.1757,1780936890187.621,7067,56,599616019652.0988,7731.0970458984375
13,599616019775.1757,1780936890187.623,-5065,57,599616019659.791,7738.789306640625
13,599616019775.1757,1780936890187.626,2369,58,599616019667.4834,7746.481689453125
13,599616019775.1757,1780936890187.629,3433,59,599616019675.1757,7754.1739501953125
13,599616019775.1757,1780936890187.632,-5592,60,599616019682.8679,7761.8662109375
13,599616019775.1757,1780936890187.634,6812,61,599616019690.5603,7769.55859375
13,599616019775.1757,1780936890187.6372,-2692,62,599616019698.2526,7777.2508544921875
13,599616019775.1757,1780936890187.646,-868,63,599616019705.945,7784.9432373046875
13,599616019775.1757,1780936890187.65,5880,64,599616019713.6372,7792.635498046875
13,599616019775.1757,1780936890187.652,-6133,65,599616019721.3295,7800.3277587890625
13,599616019775.1757,1780936890187.655,5025,66,599616019729.0219,7808.0201416015625
13,599616019775.1757,1780936890187.658,443,67,599616019736.7141,7815.71240234375
13,599616019775.1757,1780936890187.66,-3840,68,599616019744.4064,7823.4046630859375
13,599616019775.1757,1780936890187.663,7005,69,599616019752.0988,7831.0970458984375
13,599616019775.1757,1780936890187.666,-5002,70,599616019759.791,7838.789306640625
13,599616019775.1757,1780936890187.668,2186,71,599616019767.4834,7846.481689453125
13,599616019775.1757,1780936890187.671,3510,72,599616019775.1757,7854.1739501953125
14,599616020336.7527,1780936890771.156,-5710,0,599616019782.9065,7861.90478515625
14,599616020336.7527,1780936890771.1711,6712,1,599616019790.5989,7869.59716796875
14,599616020336.7527,1780936890771.174,-2595,2,599616019798.2911,7877.2894287109375
14,599616020336.7527,1780936890771.177,-1052,3,599616019805.9834,7884.981689453125
14,599616020336.7527,1780936890771.179,5954,4,599616019813.6758,7892.674072265625
14,599616020336.7527,1780936890771.1812,-6124,5,599616019821.368,7900.3663330078125
14,599616020336.7527,1780936890771.183,4920,6,599616019829.0604,7908.0587158203125
14,599616020336.7527,1780936890771.1848,611,7,599616019836.7527,7915.7509765625
14,599616020336.7527,1780936890771.187,-3977,8,599616019844.445,7923.4432373046875
14,599616020336.7527,1780936890771.19,7025,9,599616019852.1373,7931.1356201171875
14,599616020336.7527,1780936890771.1921,-4939,10,599616019859.8296,7938.827880859375
14,599616020336.7527,1780936890771.194,1977,11,599616019867.522,7946.520263671875
14,599616020336.7527,1780936890771.2778,3661,12,599616019875.2142,7954.2125244140625
14,599616020336.7527,1780936890771.2869,-5759,13,599616019882.9065,7961.90478515625
14,599616020336.7527,1780936890771.2952,6635,14,599616019890.5989,7969.59716796875
14,599616020336.7527,1780936890771.301,-2430,15,599616019898.2911,7977.2894287109375
14,599616020336.7527,1780936890771.3079,-1243,16,599616019905.9834,7984.981689453125
14,599616020336.7527,1780936890771.314,5938,17,599616019913.6758,7992.674072265625
14,599616020336.7527,1780936890771.32,-6115,18,599616019921.368,8000.3663330078125
14,599616020336.7527,1780936890771.3262,4753,19,599616019929.0604,8008.0587158203125
14,599616020336.7527,1780936890771.332,650,20,599616019936.7527,8015.7509765625
14,599616020336.7527,1780936890771.338,-4070,21,599616019944.445,8023.4432373046875
14,599616020336.7527,1780936890771.344,7046,22,599616019952.1373,8031.1356201171875
14,599616020336.7527,1780936890771.351,-4888,23,599616019959.8296,8038.827880859375
14,599616020336.7527,1780936890771.3572,1765,24,599616019967.522,8046.520263671875
14,599616020336.7527,1780936890771.363,3654,25,599616019975.2142,8054.2125244140625
14,599616020336.7527,1780936890771.369,-5762,26,599616019982.9065,8061.90478515625
14,599616020336.7527,1780936890771.375,6607,27,599616019990.5989,8069.59716796875
14,599616020336.7527,1780936890771.3809,-2418,28,599616019998.2911,8077.2894287109375
14,599616020336.7527,1780936890771.3872,-1340,29,599616020005.9834,8084.981689453125
14,599616020336.7527,1780936890771.393,6078,30,599616020013.6758,8092.674072265625
14,599616020336.7527,1780936890771.4,-6110,31,599616020021.368,8100.3663330078125
14,599616020336.7527,1780936890771.406,4642,32,599616020029.0604,8108.0587158203125
14,599616020336.7527,1780936890771.427,764,33,599616020036.7527,8115.7509765625
14,599616020336.7527,1780936890771.431,-4179,34,599616020044.445,8123.4432373046875
14,599616020336.7527,1780936890771.433,7049,35,599616020052.1373,8131.1356201171875
14,599616020336.7527,1780936890771.435,-4867,36,599616020059.8296,8138.827880859375
14,599616020336.7527,1780936890771.437,1665,37,599616020067.522,8146.520263671875
14,599616020336.7527,1780936890771.439,3852,38,599616020075.2142,8154.2125244140625
14,599616020336.7527,1780936890771.447,-5873,39,599616020082.9065,8161.90478515625
14,599616020336.7527,1780936890771.449,6519,40,599616020090.5989,8169.59716796875
14,599616020336.7527,1780936890771.451,-2309,41,599616020098.2911,8177.2894287109375
14,599616020336.7527,1780936890771.453,-1598,42,599616020105.9834,8184.981689453125
14,599616020336.7527,1780936890771.455,6117,43,599616020113.6758,8192.674072265625
14,599616020336.7527,1780936890771.457,-6217,44,599616020121.368,8200.366333007812
14,599616020336.7527,1780936890771.459,4314,45,599616020129.0604,8208.058715820312
14,599616020336.7527,1780936890771.461,959,46,599616020136.7527,8215.7509765625
14,599616020336.7527,1780936890771.463,-4216,47,599616020144.445,8223.443237304688
14,599616020336.7527,1780936890771.465,6981,48,599616020152.1373,8231.135620117188
14,599616020336.7527,1780936890771.467,-4762,49,599616020159.8296,8238.827880859375
14,599616020336.7527,1780936890771.47,1575,50,599616020167.522,8246.520263671875
14,599616020336.7527,1780936890771.472,3954,51,599616020175.2142,8254.212524414062
14,599616020336.7527,1780936890771.4739,-5975,52,599616020182.9065,8261.90478515625
14,599616020336.7527,1780936890771.476,6419,53,599616020190.5989,8269.59716796875
14,599616020336.7527,1780936890771.478,-2132,54,599616020198.2911,8277.289428710938
14,599616020336.7527,1780936890771.48,-1672,55,599616020205.9834,8284.981689453125
14,599616020336.7527,1780936890771.482,6182,56,599616020213.6758,8292.674072265625
14,599616020336.7527,1780936890771.484,-6061,57,599616020221.368,8300.366333007812
14,599616020336.7527,1780936890771.486,4402,58,599616020229.0604,8308.058715820312
14,599616020336.7527,1780936890771.488,1043,59,599616020236.7527,8315.7509765625
14,599616020336.7527,1780936890771.49,-4433,60,599616020244.445,8323.443237304688
14,599616020336.7527,1780936890771.492,7049,61,599616020252.1373,8331.135620117188
14,599616020336.7527,1780936890771.495,-4630,62,599616020259.8296,8338.827880859375
14,599616020336.7527,1780936890771.497,1417,63,599616020267.522,8346.520263671875
14,599616020336.7527,1780936890771.499,4096,64,599616020275.2142,8354.212524414062
14,599616020336.7527,1780936890771.501,-6047,65,599616020282.9065,8361.90478515625
14,599616020336.7527,1780936890771.503,6268,66,599616020290.5989,8369.59716796875
14,599616020336.7527,1780936890771.5051,-1970,67,599616020298.2911,8377.289428710938
14,599616020336.7527,1780936890771.507,-1737,68,599616020305.9834,8384.981689453125
14,599616020336.7527,1780936890771.509,6226,69,599616020313.6758,8392.674072265625
14,599616020336.7527,1780936890771.511,-6054,70,599616020321.368,8400.366333007812
14,599616020336.7527,1780936890771.513,4323,71,599616020329.0604,8408.058715820312
14,599616020336.7527,1780936890771.517,1222,72,599616020336.7527,8415.7509765625
15,599616020898.3195,1780936891312.306,-4500,0,599616020344.4733,8423.471557617188
15,599616020898.3195,1780936891312.316,7065,1,599616020352.1656,8431.163940429688
15,599616020898.3195,1780936891312.319,-4586,2,599616020359.8579,8438.856201171875
15,599616020898.3195,1780936891312.322,1238,3,599616020367.5502,8446.548461914062
15,599616020898.3195,1780936891312.324,4244,4,599616020375.2426,8454.240844726562
15,599616020898.3195,1780936891312.327,-6033,5,599616020382.9348,8461.93310546875
15,599616020898.3195,1780936891312.335,6280,6,599616020390.6272,8469.62548828125
15,599616020898.3195,1780936891312.3381,-1856,7,599616020398.3195,8477.317749023438
15,599616020898.3195,1780936891312.34,-1986,8,599616020406.0117,8485.010009765625
15,599616020898.3195,1780936891312.342,6268,9,599616020413.7041,8492.702392578125
15,599616020898.3195,1780936891312.346,-6066,10,599616020421.3964,8500.394653320312
15,599616020898.3195,1780936891312.348,4098,11,599616020429.0887,8508.087036132812
15,599616020898.3195,1780936891312.351,1363,12,599616020436.781,8515.779296875
15,599616020898.3195,1780936891312.3528,-4586,13,599616020444.4733,8523.471557617188
15,599616020898.3195,1780936891312.355,7007,14,599616020452.1656,8531.163940429688
15,599616020898.3195,1780936891312.358,-4558,15,599616020459.8579,8538.856201171875
15,599616020898.3195,1780936891312.36,1015,16,599616020467.5502,8546.548461914062
15,599616020898.3195,1780936891312.362,4319,17,599616020475.2426,8554.240844726562
15,599616020898.3195,1780936891312.365,-6061,18,599616020482.9348,8561.93310546875
15,599616020898.3195,1780936891312.367,6208,19,599616020490.6272,8569.62548828125
15,599616020898.3195,1780936891312.3691,-1735,20,599616020498.3195,8577.317749023438
15,599616020898.3195,1780936891312.372,-2128,21,599616020506.0117,8585.010009765625
15,599616020898.3195,1780936891312.374,6324,22,599616020513.7041,8592.702392578125
15,599616020898.3195,1780936891312.376,-6029,23,599616020521.3964,8600.394653320312
15,599616020898.3195,1780936891312.379,4005,24,599616020529.0887,8608.087036132812
15,599616020898.3195,1780936891312.381,1489,25,599616020536.781,8615.779296875
15,599616020898.3195,1780936891312.3838,-4728,26,599616020544.4733,8623.471557617188
15,599616020898.3195,1780936891312.386,7044,27,599616020552.1656,8631.163940429688
15,599616020898.3195,1780936891312.389,-4363,28,599616020559.8579,8638.856201171875
15,599616020898.3195,1780936891312.391,915,29,599616020567.5502,8646.548461914062
15,599616020898.3195,1780936891312.393,4419,30,599616020575.2426,8654.240844726562
15,599616020898.3195,1780936891312.396,-6124,31,599616020582.9348,8661.93310546875
15,599616020898.3195,1780936891312.398,6198,32,599616020590.6272,8669.62548828125
15,599616020898.3195,1780936891312.4001,-1496,33,599616020598.3195,8677.317749023438
15,599616020898.3195,1780936891312.403,-2267,34,599616020606.0117,8685.010009765625
15,599616020898.3195,1780936891312.405,6417,35,599616020613.7041,8692.702392578125
15,599616020898.3195,1780936891312.413,-5885,36,599616020621.3964,8700.394653320312
15,599616020898.3195,1780936891312.4148,3889,37,599616020629.0887,8708.087036132812
15,599616020898.3195,1780936891312.417,1593,38,599616020636.781,8715.779296875
15,599616020898.3195,1780936891312.42,-4851,39,599616020644.4733,8723.471557617188
15,599616020898.3195,1780936891312.422,6995,40,599616020652.1656,8731.163940429688
15,599616020898.3195,1780936891312.4238,-4279,41,599616020659.8579,8738.856201171875
15,599616020898.3195,1780936891312.427,755,42,599616020667.5502,8746.548461914062
15,599616020898.3195,1780936891312.429,4493,43,599616020675.2426,8754.240844726562
15,599616020898.3195,1780936891312.4312,-6222,44,599616020682.9348,8761.93310546875
15,599616020898.3195,1780936891312.4338,6040,45,599616020690.6272,8769.62548828125
15,599616020898.3195,1780936891312.436,-1440,46,599616020698.3195,8777.317749023438
15,599616020898.3195,1780936891312.438,-2448,47,599616020706.0117,8785.010009765625
15,599616020898.3195,1780936891312.4412,6452,48,599616020713.7041,8792.702392578125
15,599616020898.3195,1780936891312.443,-5927,49,599616020721.3964,8800.394653320312
15,599616020898.3195,1780936891312.446,3703,50,599616020729.0887,8808.087036132812
15,599616020898.3195,1780936891312.448,1737,51,599616020736.781,8815.779296875
15,599616020898.3195,1780936891312.45,-4955,52,599616020744.4733,8823.471557617188
15,599616020898.3195,1780936891312.4531,7019,53,599616020752.1656,8831.163940429688
15,599616020898.3195,1780936891312.4548,-4128,54,599616020759.8579,8838.856201171875
15,599616020898.3195,1780936891312.457,571,55,599616020767.5502,8846.548461914062
15,599616020898.3195,1780936891312.459,4584,56,599616020775.2426,8854.240844726562
15,599616020898.3195,1780936891312.4622,-6229,57,599616020782.9348,8861.93310546875
15,599616020898.3195,1780936891312.464,5961,58,599616020790.6272,8869.62548828125
15,599616020898.3195,1780936891312.4658,-1326,59,599616020798.3195,8877.317749023438
15,599616020898.3195,1780936891312.469,-2604,60,599616020806.0117,8885.010009765625
15,599616020898.3195,1780936891312.471,6533,61,599616020813.7041,8892.702392578125
15,599616020898.3195,1780936891312.4731,-5913,62,599616020821.3964,8900.394653320312
15,599616020898.3195,1780936891312.4758,3499,63,599616020829.0887,8908.087036132812
15,599616020898.3195,1780936891312.478,1907,64,599616020836.781,8915.779296875
15,599616020898.3195,1780936891312.481,-5020,65,599616020844.4733,8923.471557617188
15,599616020898.3195,1780936891312.4832,6942,66,599616020852.1656,8931.163940429688
15,599616020898.3195,1780936891312.4858,-4075,67,599616020859.8579,8938.856201171875
15,599616020898.3195,1780936891312.488,441,68,599616020867.5502,8946.548461914062
15,599616020898.3195,1780936891312.49,4758,69,599616020875.2426,8954.240844726562
15,599616020898.3195,1780936891312.492,-6212,70,599616020882.9348,8961.93310546875
15,599616020898.3195,1780936891312.4949,5894,71,599616020890.6272,8969.62548828125
15,599616020898.3195,1780936891312.4968,-1182,72,599616020898.3195,8977.317749023438
16,599616021459.8864,1780936891850.572,-2725,0,599616020906.0402,8985.038452148438
16,599616021459.8864,1780936891850.5818,6682,1,599616020913.7325,8992.730834960938
16,599616021459.8864,1780936891850.584,-5771,2,599616020921.4248,9000.423095703125
16,599616021459.8864,1780936891850.587,3371,3,599616020929.1171,9008.115356445312
16,599616021459.8864,1780936891850.589,2067,4,599616020936.8094,9015.807739257812
16,599616021459.8864,1780936891850.591,-5069,5,599616020944.5017,9023.5
16,599616021459.8864,1780936891850.593,6935,6,599616020952.1941,9031.1923828125
16,599616021459.8864,1780936891850.596,-4021,7,599616020959.8864,9038.884643554688
16,599616021459.8864,1780936891850.5981,206,8,599616020967.5786,9046.576904296875
16,599616021459.8864,1780936891850.601,4865,9,599616020975.271,9054.269287109375
16,599616021459.8864,1780936891850.603,-6245,10,599616020982.9633,9061.961547851562
16,599616021459.8864,1780936891850.605,5752,11,599616020990.6556,9069.653930664062
16,599616021459.8864,1780936891850.607,-1078,12,599616020998.3479,9077.34619140625
16,599616021459.8864,1780936891850.6091,-2953,13,599616021006.0402,9085.038452148438
16,599616021459.8864,1780936891850.611,6586,14,599616021013.7325,9092.730834960938
16,599616021459.8864,1780936891850.613,-5799,15,599616021021.4248,9100.423095703125
16,599616021459.8864,1780936891850.615,3248,16,599616021029.1171,9108.115356445312
16,599616021459.8864,1780936891850.617,2177,17,599616021036.8094,9115.807739257812
16,599616021459.8864,1780936891850.6191,-5255,18,599616021044.5017,9123.5
16,599616021459.8864,1780936891850.621,6907,19,599616021052.1941,9131.1923828125
16,599616021459.8864,1780936891850.6301,-3842,20,599616021059.8864,9138.884643554688
16,599616021459.8864,1780936891850.6318,111,21,599616021067.5786,9146.576904296875
16,599616021459.8864,1780936891850.634,5060,22,599616021075.271,9154.269287109375
16,599616021459.8864,1780936891850.637,-6208,23,599616021082.9633,9161.961547851562
16,599616021459.8864,1780936891850.6392,5643,24,599616021090.6556,9169.653930664062
16,599616021459.8864,1780936891850.641,-871,25,599616021098.3479,9177.34619140625
16,599616021459.8864,1780936891850.6428,-2964,26,599616021106.0402,9185.038452148438
16,599616021459.8864,1780936891850.645,6649,27,599616021113.7325,9192.730834960938
16,599616021459.8864,1780936891850.647,-5799,28,599616021121.4248,9200.423095703125
16,599616021459.8864,1780936891850.6492,3127,29,599616021129.1171,9208.115356445312
16,599616021459.8864,1780936891850.6528,2374,30,599616021136.8094,9215.807739257812
16,599616021459.8864,1780936891850.655,-5348,31,599616021144.5017,9223.5
16,599616021459.8864,1780936891850.657,6895,32,599616021152.1941,9231.1923828125
16,599616021459.8864,1780936891850.659,-3682,33,599616021159.8864,9238.884643554688
16,599616021459.8864,1780936891850.6611,-88,34,599616021167.5786,9246.576904296875
16,599616021459.8864,1780936891850.6628,5071,35,599616021175.271,9254.269287109375
16,599616021459.8864,1780936891850.665,-6303,36,599616021182.9633,9261.961547851562
16,599616021459.8864,1780936891850.667,5504,37,599616021190.6556,9269.653930664062
16,599616021459.8864,1780936891850.669,-706,38,599616021198.3479,9277.34619140625
16,599616021459.8864,1780936891850.6711,-3069,39,599616021206.0402,9285.038452148438
16,599616021459.8864,1780936891850.6738,6714,40,599616021213.7325,9292.730834960938
16,599616021459.8864,1780936891850.676,-5715,41,599616021221.4248,9300.423095703125
16,599616021459.8864,1780936891850.678,2999,42,599616021229.1171,9308.115356445312
16,599616021459.8864,1780936891850.6802,2462,43,599616021236.8094,9315.807739257812
16,599616021459.8864,1780936891850.6821,-5578,44,599616021244.5017,9323.5
16,599616021459.8864,1780936891850.6838,6800,45,599616021252.1941,9331.1923828125
16,599616021459.8864,1780936891850.686,-3578,46,599616021259.8864,9338.884643554688
16,599616021459.8864,1780936891850.688,-318,47,599616021267.5786,9346.576904296875
16,599616021459.8864,1780936891850.69,5164,48,599616021275.271,9354.269287109375
16,599616021459.8864,1780936891850.6921,-6270,49,599616021282.9633,9361.961547851562
16,599616021459.8864,1780936891850.6938,5425,50,599616021290.6556,9369.653930664062
16,599616021459.8864,1780936891850.696,-615,51,599616021298.3479,9377.34619140625
16,599616021459.8864,1780936891850.698,-3336,52,599616021306.0402,9385.038452148438
16,599616021459.8864,1780936891850.7,6700,53,599616021313.7325,9392.730834960938
16,599616021459.8864,1780936891850.7021,-5676,54,599616021321.4248,9400.423095703125
16,599616021459.8864,1780936891850.7039,2764,55,599616021329.1171,9408.115356445312
16,599616021459.8864,1780936891850.706,2599,56,599616021336.8094,9415.807739257812
16,599616021459.8864,1780936891850.708,-5555,57,599616021344.5017,9423.5
16,599616021459.8864,1780936891850.71,6795,58,599616021352.1941,9431.1923828125
16,599616021459.8864,1780936891850.7122,-3487,59,599616021359.8864,9438.884643554688
16,599616021459.8864,1780936891850.7139,-508,60,599616021367.5786,9446.576904296875
16,599616021459.8864,1780936891850.716,5234,61,599616021375.271,9454.269287109375
16,599616021459.8864,1780936891850.718,-6261,62,599616021382.9633,9461.961547851562
16,599616021459.8864,1780936891850.721,5374,63,599616021390.6556,9469.653930664062
16,599616021459.8864,1780936891850.7231,-390,64,599616021398.3479,9477.34619140625
16,599616021459.8864,1780936891850.7249,-3406,65,599616021406.0402,9485.038452148438
16,599616021459.8864,1780936891850.727,6761,66,599616021413.7325,9492.730834960938
16,599616021459.8864,1780936891850.729,-5527,67,599616021421.4248,9500.423095703125
16,599616021459.8864,1780936891850.731,2667,68,599616021429.1171,9508.115356445312
16,599616021459.8864,1780936891850.7332,2711,69,599616021436.8094,9515.807739257812
16,599616021459.8864,1780936891850.7349,-5590,70,599616021444.5017,9523.5
16,599616021459.8864,1780936891850.737,6830,71,599616021452.1941,9531.1923828125
16,599616021459.8864,1780936891850.739,-3292,72,599616021459.8864,9538.884643554688
17,599616022021.4531,1780936892435.689,-555,0,599616021467.6069,9546.605224609375
17,599616022021.4531,1780936892435.701,5390,1,599616021475.2993,9554.297607421875
17,599616022021.4531,1780936892435.7048,-6268,2,599616021482.9916,9561.989868164062
17,599616022021.4531,1780936892435.708,5264,3,599616021490.6838,9569.68212890625
17,599616022021.4531,1780936892435.731,-315,4,599616021498.3762,9577.37451171875
17,599616022021.4531,1780936892435.735,-3645,5,599616021506.0685,9585.066772460938
17,599616022021.4531,1780936892435.739,6784,6,599616021513.7609,9592.759155273438
17,599616022021.4531,1780936892435.742,-5464,7,599616021521.4531,9600.451416015625
17,599616022021.4531,1780936892435.745,2481,8,599616021529.1454,9608.143676757812
17,599616022021.4531,1780936892435.748,2860,9,599616021536.8378,9615.836059570312
17,599616022021.4531,1780936892435.751,-5729,10,599616021544.53,9623.5283203125
17,599616022021.4531,1780936892435.7542,6665,11,599616021552.2224,9631.220703125
17,599616022021.4531,1780936892435.7568,-3217,12,599616021559.9147,9638.912963867188
17,599616022021.4531,1780936892435.76,-766,13,599616021567.6069,9646.605224609375
17,599616022021.4531,1780936892435.7642,5392,14,599616021575.2993,9654.297607421875
17,599616022021.4531,1780936892435.7668,-6363,15,599616021582.9916,9661.989868164062
17,599616022021.4531,1780936892435.77,5060,16,599616021590.6838,9669.68212890625
17,599616022021.4531,1780936892435.773,-178,17,599616021598.3762,9677.37451171875
17,599616022021.4531,1780936892435.776,-3705,18,599616021606.0685,9685.066772460938
17,599616022021.4531,1780936892435.78,6795,19,599616021613.7609,9692.759155273438
17,599616022021.4531,1780936892435.783,-5457,20,599616021621.4531,9700.451416015625
17,599616022021.4531,1780936892435.786,2335,21,599616021629.1454,9708.143676757812
17,599616022021.4531,1780936892435.789,3036,22,599616021636.8378,9715.836059570312
17,599616022021.4531,1780936892435.792,-5703,23,599616021644.53,9723.5283203125
17,599616022021.4531,1780936892435.7952,6663,24,599616021652.2224,9731.220703125
17,599616022021.4531,1780936892435.7988,-3166,25,599616021659.9147,9738.912963867188
17,599616022021.4531,1780936892435.802,-936,26,599616021667.6069,9746.605224609375
17,599616022021.4531,1780936892435.8052,5548,27,599616021675.2993,9754.297607421875
17,599616022021.4531,1780936892435.8079,-6319,28,599616021682.9916,9761.989868164062
17,599616022021.4531,1780936892435.812,4962,29,599616021690.6838,9769.68212890625
17,599616022021.4531,1780936892435.814,4,30,599616021698.3762,9777.37451171875
17,599616022021.4531,1780936892435.817,-3789,31,599616021706.0685,9785.066772460938
17,599616022021.4531,1780936892435.82,6849,32,599616021713.7609,9792.759155273438
17,599616022021.4531,1780936892435.822,-5362,33,599616021721.4531,9800.451416015625
17,599616022021.4531,1780936892435.8252,2114,34,599616021729.1454,9808.143676757812
17,599616022021.4531,1780936892435.827,3124,35,599616021736.8378,9815.836059570312
17,599616022021.4531,1780936892435.83,-5683,36,599616021744.53,9823.5283203125
17,599616022021.4531,1780936892435.832,6649,37,599616021752.2224,9831.220703125
17,599616022021.4531,1780936892435.835,-3022,38,599616021759.9147,9838.912963867188
17,599616022021.4531,1780936892435.837,-978,39,599616021767.6069,9846.605224609375
17,599616022021.4531,1780936892435.8398,5701,40,599616021775.2993,9854.297607421875
17,599616022021.4531,1780936892435.842,-6298,41,599616021782.9916,9861.989868164062
17,599616022021.4531,1780936892435.845,4911,42,599616021790.6838,9869.68212890625
17,599616022021.4531,1780936892435.848,188,43,599616021798.3762,9877.37451171875
17,599616022021.4531,1780936892435.8499,-3917,44,599616021806.0685,9885.066772460938
17,599616022021.4531,1780936892435.853,6856,45,599616021813.7609,9892.759155273438
17,599616022021.4531,1780936892435.855,-5257,46,599616021821.4531,9900.451416015625
17,599616022021.4531,1780936892435.858,2063,47,599616021829.1454,9908.143676757812
17,599616022021.4531,1780936892435.8599,3273,48,599616021836.8378,9915.836059570312
17,599616022021.4531,1780936892435.863,-5861,49,599616021844.53,9923.5283203125
17,599616022021.4531,1780936892435.865,6540,50,599616021852.2224,9931.220703125
17,599616022021.4531,1780936892435.868,-2941,51,599616021859.9147,9938.912963867188
17,599616022021.4531,1780936892435.8699,-1277,52,599616021867.6069,9946.605224609375
17,599616022021.4531,1780936892435.873,5706,53,599616021875.2993,9954.297607421875
17,599616022021.4531,1780936892435.875,-6296,54,599616021882.9916,9961.989868164062
17,599616022021.4531,1780936892435.878,4714,55,599616021890.6838,9969.68212890625
17,599616022021.4531,1780936892435.8809,257,56,599616021898.3762,9977.37451171875
17,599616022021.4531,1780936892435.883,-4065,57,599616021906.0685,9985.066772460938
17,599616022021.4531,1780936892435.886,6847,58,599616021913.7609,9992.759155273438
17,599616022021.4531,1780936892435.888,-5183,59,599616021921.4531,10000.451416015625
17,599616022021.4531,1780936892435.8909,1884,60,599616021929.1454,10008.143676757812
17,599616022021.4531,1780936892435.893,3336,61,599616021936.8378,10015.836059570312
17,599616022021.4531,1780936892435.896,-5936,62,599616021944.53,10023.5283203125
17,599616022021.4531,1780936892435.898,6486,63,599616021952.2224,10031.220703125
17,599616022021.4531,1780936892435.901,-2774,64,599616021959.9147,10038.912963867188
17,599616022021.4531,1780936892435.903,-1331,65,599616021967.6069,10046.605224609375
17,599616022021.4531,1780936892435.906,5755,66,599616021975.2993,10054.297607421875
17,599616022021.4531,1780936892435.908,-6347,67,599616021982.9916,10061.989868164062
17,599616022021.4531,1780936892435.911,4670,68,599616021990.6838,10069.68212890625
17,599616022021.4531,1780936892435.913,473,69,599616021998.3762,10077.37451171875
17,599616022021.4531,1780936892435.916,-4170,70,599616022006.0685,10085.066772460938
17,599616022021.4531,1780936892435.919,6867,71,599616022013.7609,10092.759155273438
17,599616022021.4531,1780936892435.921,-5081,72,599616022021.4531,10100.451416015625
18,599616022583.0199,1780936893021.6,1751,0,599616022029.1737,10108.171997070312
18,599616022583.0199,1780936893021.6128,3501,1,599616022036.8661,10115.864379882812
18,599616022583.0199,1780936893021.616,-5933,2,599616022044.5583,10123.556640625
18,599616022583.0199,1780936893021.6191,6445,3,599616022052.2506,10131.248901367188
18,599616022583.0199,1780936893021.6218,-2611,4,599616022059.943,10138.941284179688
18,599616022583.0199,1780936893021.624,-1438,5,599616022067.6353,10146.633544921875
18,599616022583.0199,1780936893021.6328,5838,6,599616022075.3276,10154.325927734375
18,599616022583.0199,1780936893021.637,-6380,7,599616022083.0199,10162.018188476562
18,599616022583.0199,1780936893021.6392,4437,8,599616022090.7122,10169.71044921875
18,599616022583.0199,1780936893021.642,578,9,599616022098.4045,10177.40283203125
18,599616022583.0199,1780936893021.645,-4233,10,599616022106.0968,10185.095092773438
18,599616022583.0199,1780936893021.648,6877,11,599616022113.7892,10192.787475585938
18,599616022583.0199,1780936893021.6501,-5027,12,599616022121.4814,10200.479736328125
18,599616022583.0199,1780936893021.6528,1619,13,599616022129.1737,10208.171997070312
18,599616022583.0199,1780936893021.655,3636,14,599616022136.8661,10215.864379882812
18,599616022583.0199,1780936893021.658,-6010,15,599616022144.5583,10223.556640625
18,599616022583.0199,1780936893021.6602,6405,16,599616022152.2506,10231.248901367188
18,599616022583.0199,1780936893021.6628,-2465,17,599616022159.943,10238.941284179688
18,599616022583.0199,1780936893021.665,-1642,18,599616022167.6353,10246.633544921875
18,599616022583.0199,1780936893021.667,5887,19,599616022175.3276,10254.325927734375
18,599616022583.0199,1780936893021.676,-6287,20,599616022183.0199,10262.018188476562
18,599616022583.0199,1780936893021.679,4393,21,599616022190.7122,10269.71044921875
18,599616022583.0199,1780936893021.6821,666,22,599616022198.4045,10277.40283203125
18,599616022583.0199,1780936893021.6838,-4442,23,599616022206.0968,10285.095092773438
18,599616022583.0199,1780936893021.687,6851,24,599616022213.7892,10292.787475585938
18,599616022583.0199,1780936893021.69,-5013,25,599616022221.4814,10300.479736328125
18,599616022583.0199,1780936893021.6929,1370,26,599616022229.1737,10308.171997070312
18,599616022583.0199,1780936893021.6948,3740,27,599616022236.8661,10315.864379882812
18,599616022583.0199,1780936893021.698,-6061,28,599616022244.5583,10323.556640625
18,599616022583.0199,1780936893021.7,6280,29,599616022252.2506,10331.248901367188
18,599616022583.0199,1780936893021.7031,-2420,30,599616022259.943,10338.941284179688
18,599616022583.0199,1780936893021.706,-1854,31,599616022267.6353,10346.633544921875
18,599616022583.0199,1780936893021.708,5957,32,599616022275.3276,10354.325927734375
18,599616022583.0199,1780936893021.7112,-6203,33,599616022283.0199,10362.018188476562
18,599616022583.0199,1780936893021.7131,4282,34,599616022290.7122,10369.71044921875
18,599616022583.0199,1780936893021.716,759,35,599616022298.4045,10377.40283203125
18,599616022583.0199,1780936893021.718,-4516,36,599616022306.0968,10385.095092773438
18,599616022583.0199,1780936893021.72,6935,37,599616022313.7892,10392.787475585938
18,599616022583.0199,1780936893021.7231,-4911,38,599616022321.4814,10400.479736328125
18,599616022583.0199,1780936893021.7249,1224,39,599616022329.1737,10408.171997070312
18,599616022583.0199,1780936893021.727,3894,40,599616022336.8661,10415.864379882812
18,599616022583.0199,1780936893021.73,-6147,41,599616022344.5583,10423.556640625
18,599616022583.0199,1780936893021.7322,6152,42,599616022352.2506,10431.248901367188
18,599616022583.0199,1780936893021.7349,-2214,43,599616022359.943,10438.941284179688
18,599616022583.0199,1780936893021.737,-1893,44,599616022367.6353,10446.633544921875
18,599616022583.0199,1780936893021.739,6026,45,599616022375.3276,10454.325927734375
18,599616022583.0199,1780936893021.7422,-6210,46,599616022383.0199,10462.018188476562
18,599616022583.0199,1780936893021.744,4189,47,599616022390.7122,10469.71044921875
18,599616022583.0199,1780936893021.7458,938,48,599616022398.4045,10477.40283203125
18,599616022583.0199,1780936893021.749,-4695,49,599616022406.0968,10485.095092773438
18,599616022583.0199,1780936893021.751,6893,50,599616022413.7892,10492.787475585938
18,599616022583.0199,1780936893021.754,-4760,51,599616022421.4814,10500.479736328125
18,599616022583.0199,1780936893021.7559,1096,52,599616022429.1737,10508.171997070312
18,599616022583.0199,1780936893021.759,3986,53,599616022436.8661,10515.864379882812
18,599616022583.0199,1780936893021.761,-6236,54,599616022444.5583,10523.556640625
18,599616022583.0199,1780936893021.7642,6061,55,599616022452.2506,10531.248901367188
18,599616022583.0199,1780936893021.7659,-2079,56,599616022459.943,10538.941284179688
18,599616022583.0199,1780936893021.768,-2063,57,599616022467.6353,10546.633544921875
18,599616022583.0199,1780936893021.771,6071,58,599616022475.3276,10554.325927734375
18,599616022583.0199,1780936893021.7732,-6224,59,599616022483.0199,10562.018188476562
18,599616022583.0199,1780936893021.776,4047,60,599616022490.7122,10569.71044921875
18,599616022583.0199,1780936893021.778,1170,61,599616022498.4045,10577.40283203125
18,599616022583.0199,1780936893021.78,-4756,62,599616022506.0968,10585.095092773438
18,599616022583.0199,1780936893021.7832,6821,63,599616022513.7892,10592.787475585938
18,599616022583.0199,1780936893021.785,-4683,64,599616022521.4814,10600.479736328125
18,599616022583.0199,1780936893021.7878,980,65,599616022529.1737,10608.171997070312
18,599616022583.0199,1780936893021.79,4124,66,599616022536.8661,10615.864379882812
18,599616022583.0199,1780936893021.792,-6177,67,599616022544.5583,10623.556640625
18,599616022583.0199,1780936893021.8352,6110,68,599616022552.2506,10631.248901367188
18,599616022583.0199,1780936893021.838,-1933,69,599616022559.943,10638.941284179688
18,599616022583.0199,1780936893021.84,-2209,70,599616022567.6353,10646.633544921875
18,599616022583.0199,1780936893021.843,6168,71,599616022575.3276,10654.325927734375
18,599616022583.0199,1780936893021.8452,-6205,72,599616022583.0199,10662.018188476562
19,599616023144.607,1780936893563.009,3880,0,599616022590.7609,10669.759155273438
19,599616023144.607,1780936893563.02,1322,1,599616022598.4532,10677.451538085938
19,599616023144.607,1780936893563.0232,-4797,2,599616022606.1455,10685.143798828125
19,599616023144.607,1780936893563.025,6872,3,599616022613.8378,10692.836059570312
19,599616023144.607,1780936893563.028,-4604,4,599616022621.5302,10700.528442382812
19,599616023144.607,1780936893563.031,766,5,599616022629.2224,10708.220703125
19,599616023144.607,1780936893563.0342,4230,6,599616022636.9148,10715.9130859375
19,599616023144.607,1780936893563.036,-6217,7,599616022644.607,10723.605346679688
19,599616023144.607,1780936893563.039,6006,8,599616022652.2993,10731.297607421875
19,599616023144.607,1780936893563.0442,-1775,9,599616022659.9917,10738.989990234375
19,599616023144.607,1780936893563.046,-2300,10,599616022667.684,10746.682250976562
19,599616023144.607,1780936893563.049,6282,11,599616022675.3763,10754.374633789062
19,599616023144.607,1780936893563.051,-6105,12,599616022683.0686,10762.06689453125
19,599616023144.607,1780936893563.0542,3775,13,599616022690.7609,10769.759155273438
19,599616023144.607,1780936893563.057,1424,14,599616022698.4532,10777.451538085938
19,599616023144.607,1780936893563.059,-4937,15,599616022706.1455,10785.143798828125
19,599616023144.607,1780936893563.062,6884,16,599616022713.8378,10792.836059570312
19,599616023144.607,1780936893563.0642,-4446,17,599616022721.5302,10800.528442382812
19,599616023144.607,1780936893563.071,664,18,599616022729.2224,10808.220703125
19,599616023144.607,1780936893563.0742,4349,19,599616022736.9148,10815.9130859375
19,599616023144.607,1780936893563.076,-6287,20,599616022744.607,10823.605346679688
19,599616023144.607,1780936893563.079,5927,21,599616022752.2993,10831.297607421875
19,599616023144.607,1780936893563.082,-1698,22,599616022759.9917,10838.989990234375
19,599616023144.607,1780936893563.084,-2583,23,599616022767.684,10846.682250976562
19,599616023144.607,1780936893563.087,6303,24,599616022775.3763,10854.374633789062
19,599616023144.607,1780936893563.0889,-6075,25,599616022783.0686,10862.06689453125
19,599616023144.607,1780936893563.092,3559,26,599616022790.7609,10869.759155273438
19,599616023144.607,1780936893563.094,1521,27,599616022798.4532,10877.451538085938
19,599616023144.607,1780936893563.097,-5065,28,599616022806.1455,10885.143798828125
19,599616023144.607,1780936893563.1,6821,29,599616022813.8378,10892.836059570312
19,599616023144.607,1780936893563.102,-4335,30,599616022821.5302,10900.528442382812
19,599616023144.607,1780936893563.1052,534,31,599616022829.2224,10908.220703125
19,599616023144.607,1780936893563.107,4440,32,599616022836.9148,10915.9130859375
19,599616023144.607,1780936893563.11,-6298,33,599616022844.607,10923.605346679688
19,599616023144.607,1780936893563.112,5936,34,599616022852.2993,10931.297607421875
19,599616023144.607,1780936893563.115,-1461,35,599616022859.9917,10938.989990234375
19,599616023144.607,1780936893563.118,-2664,36,599616022867.684,10946.682250976562
19,599616023144.607,1780936893563.1199,6394,37,599616022875.3763,10954.374633789062
19,599616023144.607,1780936893563.123,-5978,38,599616022883.0686,10962.06689453125
19,599616023144.607,1780936893563.125,3494,39,599616022890.7609,10969.759155273438
19,599616023144.607,1780936893563.128,1733,40,599616022898.4532,10977.451538085938
19,599616023144.607,1780936893563.13,-5065,41,599616022906.1455,10985.143798828125
19,599616023144.607,1780936893563.133,6863,42,599616022913.8378,10992.836059570312
19,599616023144.607,1780936893563.136,-4261,43,599616022921.5302,11000.528442382812
19,599616023144.607,1780936893563.138,350,44,599616022929.2224,11008.220703125
19,599616023144.607,1780936893563.141,4556,45,599616022936.9148,11015.9130859375
19,599616023144.607,1780936893563.143,-6380,46,599616022944.607,11023.605346679688
19,599616023144.607,1780936893563.146,5810,47,599616022952.2993,11031.297607421875
19,599616023144.607,1780936893563.148,-1284,48,599616022959.9917,11038.989990234375
19,599616023144.607,1780936893563.151,-2829,49,599616022967.684,11046.682250976562
19,599616023144.607,1780936893563.154,6363,50,599616022975.3763,11054.374633789062
19,599616023144.607,1780936893563.156,-6036,51,599616022983.0686,11062.06689453125
19,599616023144.607,1780936893563.159,3234,52,599616022990.7609,11069.759155273438
19,599616023144.607,1780936893563.161,1823,53,599616022998.4532,11077.451538085938
19,599616023144.607,1780936893563.164,-5178,54,599616023006.1455,11085.143798828125
19,599616023144.607,1780936893563.174,6798,55,599616023013.8378,11092.836059570312
19,599616023144.607,1780936893563.176,-4175,56,599616023021.5302,11100.528442382812
19,599616023144.607,1780936893563.179,181,57,599616023029.2224,11108.220703125
19,599616023144.607,1780936893563.1821,4656,58,599616023036.9148,11115.9130859375
19,599616023144.607,1780936893563.184,-6380,59,599616023044.607,11123.605346679688
19,599616023144.607,1780936893563.1868,5673,60,599616023052.2993,11131.297607421875
19,599616023144.607,1780936893563.189,-1273,61,599616023059.9917,11138.989990234375
19,599616023144.607,1780936893563.192,-2980,62,599616023067.684,11146.682250976562
19,599616023144.607,1780936893563.196,6498,63,599616023075.3763,11154.374633789062
19,599616023144.607,1780936893563.198,-5913,64,599616023083.0686,11162.06689453125
19,599616023144.607,1780936893563.201,3197,65,599616023090.7609,11169.759155273438
19,599616023144.607,1780936893563.204,2039,66,599616023098.4532,11177.451538085938
19,599616023144.607,1780936893563.207,-5255,67,599616023106.1455,11185.143798828125
