packet_id,device_time,host_time,ecg
0,599618435535.8046,1780931602752.691,5665
0,599618435535.8046,1780931602752.701,5820
0,599618435535.8046,1780931602752.7039,6036
0,599618435535.8046,1780931602752.707,6207
0,599618435535.8046,1780931602752.7102,6318
0,599618435535.8046,1780931602752.713,6434
0,599618435535.8046,1780931602752.715,6541
0,599618435535.8046,1780931602752.718,6623
0,599618435535.8046,1780931602752.727,6744
0,599618435535.8046,1780931602752.73,6876
0,599618435535.8046,1780931602752.733,6960
0,599618435535.8046,1780931602752.7349,7017
0,599618435535.8046,1780931602752.738,7137
0,599618435535.8046,1780931602752.7412,7276
0,599618435535.8046,1780931602752.743,7267
0,599618435535.8046,1780931602752.746,7237
0,599618435535.8046,1780931602752.748,7344
0,599618435535.8046,1780931602752.7512,7419
0,599618435535.8046,1780931602752.753,7417
0,599618435535.8046,1780931602752.758,7483
0,599618435535.8046,1780931602752.76,7592
0,599618435535.8046,1780931602752.763,7617
0,599618435535.8046,1780931602752.765,7617
0,599618435535.8046,1780931602752.779,7663
0,599618435535.8046,1780931602752.793,7699
0,599618435535.8046,1780931602752.7969,7769
0,599618435535.8046,1780931602752.801,8017
0,599618435535.8046,1780931602752.804,8352
0,599618435535.8046,1780931602752.807,8277
0,599618435535.8046,1780931602752.809,7608
0,599618435535.8046,1780931602752.812,7098
0,599618435535.8046,1780931602752.815,7296
0,599618435535.8046,1780931602752.817,7690
0,599618435535.8046,1780931602752.82,7908
0,599618435535.8046,1780931602752.822,7992
0,599618435535.8046,1780931602752.825,7872
0,599618435535.8046,1780931602752.827,7742
0,599618435535.8046,1780931602752.83,7788
0,599618435535.8046,1780931602752.833,7829
0,599618435535.8046,1780931602752.835,7801
0,599618435535.8046,1780931602752.838,7785
0,599618435535.8046,1780931602752.841,7751
0,599618435535.8046,1780931602752.843,7715
0,599618435535.8046,1780931602752.846,7726
0,599618435535.8046,1780931602752.848,7733
0,599618435535.8046,1780931602752.854,7731
0,599618435535.8046,1780931602752.857,7719
0,599618435535.8046,1780931602752.8591,7615
0,599618435535.8046,1780931602752.862,7526
0,599618435535.8046,1780931602752.8638,7542
0,599618435535.8046,1780931602752.867,7553
0,599618435535.8046,1780931602752.869,7531
0,599618435535.8046,1780931602752.872,7506
0,599618435535.8046,1780931602752.875,7506
0,599618435535.8046,1780931602752.877,7574
0,599618435535.8046,1780931602752.8801,7522
0,599618435535.8046,1780931602752.882,7342
0,599618435535.8046,1780931602752.885,7328
0,599618435535.8046,1780931602752.888,7353
0,599618435535.8046,1780931602752.8901,7255
0,599618435535.8046,1780931602752.893,7203
0,599618435535.8046,1780931602752.895,7219
0,599618435535.8046,1780931602752.898,7208
0,599618435535.8046,1780931602752.9,7119
0,599618435535.8046,1780931602752.903,6946
0,599618435535.8046,1780931602752.907,6810
0,599618435535.8046,1780931602752.909,6744
0,599618435535.8046,1780931602752.912,6664
0,599618435535.8046,1780931602752.914,6598
0,599618435535.8046,1780931602752.917,6575
0,599618435535.8046,1780931602752.919,6466
0,599618435535.8046,1780931602752.922,6286
0,599618435535.8046,1780931602752.924,6225
1,599618436097.3358,1780931603338.618,6239
1,599618436097.3358,1780931603338.63,6266
1,599618436097.3358,1780931603338.633,6211
1,599618436097.3358,1780931603338.636,6011
1,599618436097.3358,1780931603338.64,5907
1,599618436097.3358,1780931603338.643,5920
1,599618436097.3358,1780931603338.645,5872
1,599618436097.3358,1780931603338.6482,5859
1,599618436097.3358,1780931603338.651,5870
1,599618436097.3358,1780931603338.653,5738
1,599618436097.3358,1780931603338.656,5611
1,599618436097.3358,1780931603338.659,5615
1,599618436097.3358,1780931603338.661,5593
1,599618436097.3358,1780931603338.664,5543
1,599618436097.3358,1780931603338.67,5513
1,599618436097.3358,1780931603338.673,5443
1,599618436097.3358,1780931603338.675,5368
1,599618436097.3358,1780931603338.678,5340
1,599618436097.3358,1780931603338.681,5313
1,599618436097.3358,1780931603338.6829,5295
1,599618436097.3358,1780931603338.686,5256
1,599618436097.3358,1780931603338.6892,5126
1,599618436097.3358,1780931603338.691,5013
1,599618436097.3358,1780931603338.694,4967
1,599618436097.3358,1780931603338.697,4931
1,599618436097.3358,1780931603338.6992,4913
1,599618436097.3358,1780931603338.702,4874
1,599618436097.3358,1780931603338.704,4785
1,599618436097.3358,1780931603338.707,4724
1,599618436097.3358,1780931603338.71,4699
1,599618436097.3358,1780931603338.712,4674
1,599618436097.3358,1780931603338.715,4658
1,599618436097.3358,1780931603338.717,4612
1,599618436097.3358,1780931603338.72,4519
1,599618436097.3358,1780931603338.722,4476
1,599618436097.3358,1780931603338.725,4464
1,599618436097.3358,1780931603338.728,4430
1,599618436097.3358,1780931603338.731,4401
1,599618436097.3358,1780931603338.733,4358
1,599618436097.3358,1780931603338.736,4287
1,599618436097.3358,1780931603338.739,4267
1,599618436097.3358,1780931603338.741,4289
1,599618436097.3358,1780931603338.744,4210
1,599618436097.3358,1780931603338.746,4060
1,599618436097.3358,1780931603338.749,3966
1,599618436097.3358,1780931603338.751,3914
1,599618436097.3358,1780931603338.754,3884
1,599618436097.3358,1780931603338.757,3878
1,599618436097.3358,1780931603338.76,3873
1,599618436097.3358,1780931603338.762,3864
1,599618436097.3358,1780931603338.765,3800
1,599618436097.3358,1780931603338.767,3707
1,599618436097.3358,1780931603338.77,3682
1,599618436097.3358,1780931603338.773,3684
1,599618436097.3358,1780931603338.775,3607
1,599618436097.3358,1780931603338.778,3511
1,599618436097.3358,1780931603338.781,3455
1,599618436097.3358,1780931603338.784,3398
1,599618436097.3358,1780931603338.786,3359
1,599618436097.3358,1780931603338.789,3336
1,599618436097.3358,1780931603338.791,3314
1,599618436097.3358,1780931603338.794,3304
1,599618436097.3358,1780931603338.796,3254
1,599618436097.3358,1780931603338.799,3136
1,599618436097.3358,1780931603338.801,3077
1,599618436097.3358,1780931603338.804,3093
1,599618436097.3358,1780931603338.8071,3079
1,599618436097.3358,1780931603338.809,3025
1,599618436097.3358,1780931603338.812,2947
1,599618436097.3358,1780931603338.814,2918
1,599618436097.3358,1780931603338.817,2993
1,599618436097.3358,1780931603338.82,3223
1,599618436097.3358,1780931603338.823,3432
2,599618436658.8671,1780931603879.783,3116
2,599618436658.8671,1780931603879.8079,2329
2,599618436658.8671,1780931603879.817,1972
2,599618436658.8671,1780931603879.828,2326
2,599618436658.8671,1780931603879.8362,2681
2,599618436658.8671,1780931603879.843,2713
2,599618436658.8671,1780931603879.8499,2697
2,599618436658.8671,1780931603879.858,2699
2,599618436658.8671,1780931603879.8672,2656
2,599618436658.8671,1780931603879.874,2645
2,599618436658.8671,1780931603879.882,2640
2,599618436658.8671,1780931603879.889,2552
2,599618436658.8671,1780931603879.896,2449
2,599618436658.8671,1780931603879.904,2406
2,599618436658.8671,1780931603879.911,2374
2,599618436658.8671,1780931603879.9182,2356
2,599618436658.8671,1780931603879.926,2356
2,599618436658.8671,1780931603879.934,2326
2,599618436658.8671,1780931603879.941,2272
2,599618436658.8671,1780931603879.948,2245
2,599618436658.8671,1780931603879.956,2235
2,599618436658.8671,1780931603879.963,2229
2,599618436658.8671,1780931603879.971,2238
2,599618436658.8671,1780931603879.978,2240
2,599618436658.8671,1780931603879.985,2224
2,599618436658.8671,1780931603879.993,2222
2,599618436658.8671,1780931603880.015,2235
2,599618436658.8671,1780931603880.024,2247
2,599618436658.8671,1780931603880.032,2254
2,599618436658.8671,1780931603880.039,2254
2,599618436658.8671,1780931603880.046,2254
2,599618436658.8671,1780931603880.054,2226
2,599618436658.8671,1780931603880.0608,2156
2,599618436658.8671,1780931603880.068,2106
2,599618436658.8671,1780931603880.076,2092
2,599618436658.8671,1780931603880.083,2035
2,599618436658.8671,1780931603880.09,1960
2,599618436658.8671,1780931603880.097,1892
2,599618436658.8671,1780931603880.105,1815
2,599618436658.8671,1780931603880.118,1744
2,599618436658.8671,1780931603880.126,1692
2,599618436658.8671,1780931603880.1328,1626
2,599618436658.8671,1780931603880.1401,1567
2,599618436658.8671,1780931603880.148,1553
2,599618436658.8671,1780931603880.155,1535
2,599618436658.8671,1780931603880.162,1496
2,599618436658.8671,1780931603880.1702,1467
2,599618436658.8671,1780931603880.177,1467
2,599618436658.8671,1780931603880.1838,1469
2,599618436658.8671,1780931603880.2148,1458
2,599618436658.8671,1780931603880.228,1444
2,599618436658.8671,1780931603880.237,1455
2,599618436658.8671,1780931603880.2458,1453
2,599618436658.8671,1780931603880.332,1396
2,599618436658.8671,1780931603880.341,1367
2,599618436658.8671,1780931603880.351,1382
2,599618436658.8671,1780931603880.358,1371
2,599618436658.8671,1780931603880.366,1362
2,599618436658.8671,1780931603880.373,1364
2,599618436658.8671,1780931603880.381,1344
2,599618436658.8671,1780931603880.388,1339
2,599618436658.8671,1780931603880.395,1348
2,599618436658.8671,1780931603880.415,1326
2,599618436658.8671,1780931603880.483,1305
2,599618436658.8671,1780931603880.49,1287
2,599618436658.8671,1780931603880.498,1246
2,599618436658.8671,1780931603880.5051,1228
2,599618436658.8671,1780931603880.512,1228
2,599618436658.8671,1780931603880.5188,1210
2,599618436658.8671,1780931603880.527,1205
2,599618436658.8671,1780931603880.534,1214
2,599618436658.8671,1780931603880.541,1203
2,599618436658.8671,1780931603880.548,1171
3,599618437220.3982,1780931604419.533,1125
3,599618437220.3982,1780931604419.5608,1096
3,599618437220.3982,1780931604419.569,1103
3,599618437220.3982,1780931604419.6118,1105
3,599618437220.3982,1780931604419.626,1073
3,599618437220.3982,1780931604419.635,1050
3,599618437220.3982,1780931604419.6428,1057
3,599618437220.3982,1780931604419.6501,1055
3,599618437220.3982,1780931604419.658,1037
3,599618437220.3982,1780931604419.665,1003
3,599618437220.3982,1780931604419.6729,975
3,599618437220.3982,1780931604419.6802,982
3,599618437220.3982,1780931604419.688,987
3,599618437220.3982,1780931604419.6948,968
3,599618437220.3982,1780931604419.7112,948
3,599618437220.3982,1780931604419.749,916
3,599618437220.3982,1780931604419.759,893
3,599618437220.3982,1780931604419.7659,900
3,599618437220.3982,1780931604419.7742,905
3,599618437220.3982,1780931604419.781,893
3,599618437220.3982,1780931604419.789,862
3,599618437220.3982,1780931604419.796,841
3,599618437220.3982,1780931604419.803,859
3,599618437220.3982,1780931604419.81,884
3,599618437220.3982,1780931604419.8179,889
3,599618437220.3982,1780931604419.8252,877
3,599618437220.3982,1780931604419.858,846
3,599618437220.3982,1780931604419.866,816
3,599618437220.3982,1780931604419.875,823
3,599618437220.3982,1780931604419.884,837
3,599618437220.3982,1780931604419.891,816
3,599618437220.3982,1780931604419.898,787
3,599618437220.3982,1780931604419.905,764
3,599618437220.3982,1780931604419.914,743
3,599618437220.3982,1780931604419.921,736
3,599618437220.3982,1780931604419.929,743
3,599618437220.3982,1780931604419.936,725
3,599618437220.3982,1780931604419.943,689
3,599618437220.3982,1780931604419.95,677
3,599618437220.3982,1780931604419.957,671
3,599618437220.3982,1780931604419.964,630
3,599618437220.3982,1780931604419.972,602
3,599618437220.3982,1780931604419.979,618
3,599618437220.3982,1780931604419.987,627
3,599618437220.3982,1780931604419.9941,607
3,599618437220.3982,1780931604420.001,632
3,599618437220.3982,1780931604420.008,784
3,599618437220.3982,1780931604420.0151,1057
3,599618437220.3982,1780931604420.023,1148
3,599618437220.3982,1780931604420.03,657
3,599618437220.3982,1780931604420.0388,-29
3,599618437220.3982,1780931604420.0461,-86
3,599618437220.3982,1780931604420.053,354
3,599618437220.3982,1780931604420.061,618
3,599618437220.3982,1780931604420.068,639
3,599618437220.3982,1780931604420.075,659
3,599618437220.3982,1780931604420.082,677
3,599618437220.3982,1780931604420.089,664
3,599618437220.3982,1780931604420.096,664
3,599618437220.3982,1780931604420.104,673
3,599618437220.3982,1780931604420.1108,643
3,599618437220.3982,1780931604420.1182,600
3,599618437220.3982,1780931604420.125,598
3,599618437220.3982,1780931604420.1318,616
3,599618437220.3982,1780931604420.1392,627
3,599618437220.3982,1780931604420.147,632
3,599618437220.3982,1780931604420.154,632
3,599618437220.3982,1780931604420.161,630
3,599618437220.3982,1780931604420.168,618
3,599618437220.3982,1780931604420.176,623
3,599618437220.3982,1780931604420.1829,652
3,599618437220.3982,1780931604420.1902,666
3,599618437220.3982,1780931604420.197,652
4,599618437781.9294,1780931605004.462,643
4,599618437781.9294,1780931605004.5,655
4,599618437781.9294,1780931605004.512,689
4,599618437781.9294,1780931605004.524,723
4,599618437781.9294,1780931605004.535,748
4,599618437781.9294,1780931605004.546,748
4,599618437781.9294,1780931605004.556,718
4,599618437781.9294,1780931605004.585,689
4,599618437781.9294,1780931605004.595,655
4,599618437781.9294,1780931605004.604,618
4,599618437781.9294,1780931605004.613,609
4,599618437781.9294,1780931605004.622,575
4,599618437781.9294,1780931605004.632,502
4,599618437781.9294,1780931605004.642,450
4,599618437781.9294,1780931605004.6511,429
4,599618437781.9294,1780931605004.66,400
4,599618437781.9294,1780931605004.67,361
4,599618437781.9294,1780931605004.6848,320
4,599618437781.9294,1780931605004.694,277
4,599618437781.9294,1780931605004.704,263
4,599618437781.9294,1780931605004.7131,282
4,599618437781.9294,1780931605004.7222,295
4,599618437781.9294,1780931605004.731,300
4,599618437781.9294,1780931605004.74,307
4,599618437781.9294,1780931605004.749,311
4,599618437781.9294,1780931605004.7578,327
4,599618437781.9294,1780931605004.7668,336
4,599618437781.9294,1780931605004.776,313
4,599618437781.9294,1780931605004.7852,272
4,599618437781.9294,1780931605004.794,236
4,599618437781.9294,1780931605004.803,243
4,599618437781.9294,1780931605004.812,272
4,599618437781.9294,1780931605004.822,291
4,599618437781.9294,1780931605004.831,309
4,599618437781.9294,1780931605004.8398,325
4,599618437781.9294,1780931605004.8489,316
4,599618437781.9294,1780931605004.858,300
4,599618437781.9294,1780931605004.8672,318
4,599618437781.9294,1780931605004.876,345
4,599618437781.9294,1780931605004.885,343
4,599618437781.9294,1780931605004.894,332
4,599618437781.9294,1780931605004.903,311
4,599618437781.9294,1780931605004.9119,291
4,599618437781.9294,1780931605004.921,309
4,599618437781.9294,1780931605004.931,329
4,599618437781.9294,1780931605004.94,327
4,599618437781.9294,1780931605004.949,322
4,599618437781.9294,1780931605004.958,320
4,599618437781.9294,1780931605004.967,304
4,599618437781.9294,1780931605004.976,275
4,599618437781.9294,1780931605004.992,254
4,599618437781.9294,1780931605005.001,272
4,599618437781.9294,1780931605005.01,284
4,599618437781.9294,1780931605005.019,261
4,599618437781.9294,1780931605005.028,266
4,599618437781.9294,1780931605005.037,295
4,599618437781.9294,1780931605005.046,316
4,599618437781.9294,1780931605005.055,316
4,599618437781.9294,1780931605005.064,291
4,599618437781.9294,1780931605005.073,270
4,599618437781.9294,1780931605005.0818,275
4,599618437781.9294,1780931605005.094,288
4,599618437781.9294,1780931605005.103,307
4,599618437781.9294,1780931605005.1118,311
4,599618437781.9294,1780931605005.121,286
4,599618437781.9294,1780931605005.1301,259
4,599618437781.9294,1780931605005.1392,257
4,599618437781.9294,1780931605005.147,275
4,599618437781.9294,1780931605005.156,277
4,599618437781.9294,1780931605005.165,245
4,599618437781.9294,1780931605005.1738,204
4,599618437781.9294,1780931605005.1829,213
4,599618437781.9294,1780931605005.1921,254
5,599618438343.4606,1780931605590.141,272
5,599618438343.4606,1780931605590.1821,295
5,599618438343.4606,1780931605590.197,325
5,599618438343.4606,1780931605590.211,300
5,599618438343.4606,1780931605590.2258,250
5,599618438343.4606,1780931605590.24,261
5,599618438343.4606,1780931605590.2542,302
5,599618438343.4606,1780931605590.2668,295
5,599618438343.4606,1780931605590.2861,259
5,599618438343.4606,1780931605590.2988,218
5,599618438343.4606,1780931605590.313,195
5,599618438343.4606,1780931605590.3262,195
5,599618438343.4606,1780931605590.3389,195
5,599618438343.4606,1780931605590.352,211
5,599618438343.4606,1780931605590.365,220
5,599618438343.4606,1780931605590.3772,188
5,599618438343.4606,1780931605590.3909,154
5,599618438343.4606,1780931605590.404,118
5,599618438343.4606,1780931605590.4182,86
5,599618438343.4606,1780931605590.431,102
5,599618438343.4606,1780931605590.445,125
5,599618438343.4606,1780931605590.458,125
5,599618438343.4606,1780931605590.471,156
5,599618438343.4606,1780931605590.483,300
5,599618438343.4606,1780931605590.496,584
5,599618438343.4606,1780931605590.509,757
5,599618438343.4606,1780931605590.522,357
5,599618438343.4606,1780931605590.535,-375
5,599618438343.4606,1780931605590.547,-552
5,599618438343.4606,1780931605590.56,-127
5,599618438343.4606,1780931605590.574,186
5,599618438343.4606,1780931605590.586,222
5,599618438343.4606,1780931605590.599,236
5,599618438343.4606,1780931605590.6118,259
5,599618438343.4606,1780931605590.625,259
5,599618438343.4606,1780931605590.638,263
5,599618438343.4606,1780931605590.658,270
5,599618438343.4606,1780931605590.6711,241
5,599618438343.4606,1780931605590.6838,181
5,599618438343.4606,1780931605590.697,159
5,599618438343.4606,1780931605590.71,175
5,599618438343.4606,1780931605590.7231,193
5,599618438343.4606,1780931605590.7349,216
5,599618438343.4606,1780931605590.748,238
5,599618438343.4606,1780931605590.762,241
5,599618438343.4606,1780931605590.775,252
5,599618438343.4606,1780931605590.7878,282
5,599618438343.4606,1780931605590.8,297
5,599618438343.4606,1780931605590.8142,318
5,599618438343.4606,1780931605590.826,343
5,599618438343.4606,1780931605590.8389,350
5,599618438343.4606,1780931605590.852,363
5,599618438343.4606,1780931605590.865,400
5,599618438343.4606,1780931605590.878,429
5,599618438343.4606,1780931605590.8909,452
5,599618438343.4606,1780931605590.905,484
5,599618438343.4606,1780931605590.919,509
5,599618438343.4606,1780931605590.931,509
5,599618438343.4606,1780931605590.944,461
5,599618438343.4606,1780931605590.956,413
5,599618438343.4606,1780931605590.969,404
5,599618438343.4606,1780931605591.007,368
5,599618438343.4606,1780931605591.02,288
5,599618438343.4606,1780931605591.032,225
5,599618438343.4606,1780931605591.045,181
5,599618438343.4606,1780931605591.058,150
5,599618438343.4606,1780931605591.0698,134
5,599618438343.4606,1780931605591.083,106
5,599618438343.4606,1780931605591.096,79
5,599618438343.4606,1780931605591.1082,90
5,599618438343.4606,1780931605591.1208,113
5,599618438343.4606,1780931605591.135,111
5,599618438343.4606,1780931605591.148,104
6,599618438904.997,1780931606130.25,116
6,599618438904.997,1780931606130.268,131
6,599618438904.997,1780931606130.2742,136
6,599618438904.997,1780931606130.2878,136
6,599618438904.997,1780931606130.2942,143
6,599618438904.997,1780931606130.301,134
6,599618438904.997,1780931606130.307,100
6,599618438904.997,1780931606130.313,90
6,599618438904.997,1780931606130.32,95
6,599618438904.997,1780931606130.327,79
6,599618438904.997,1780931606130.333,88
6,599618438904.997,1780931606130.3389,90
6,599618438904.997,1780931606130.3452,27
6,599618438904.997,1780931606130.351,-6
6,599618438904.997,1780931606130.357,36
6,599618438904.997,1780931606130.363,63
6,599618438904.997,1780931606130.3699,61
6,599618438904.997,1780931606130.3762,68
6,599618438904.997,1780931606130.382,79
6,599618438904.997,1780931606130.395,90
6,599618438904.997,1780931606130.402,102
6,599618438904.997,1780931606130.408,118
6,599618438904.997,1780931606130.414,129
6,599618438904.997,1780931606130.42,129
6,599618438904.997,1780931606130.426,129
6,599618438904.997,1780931606130.432,136
6,599618438904.997,1780931606130.438,116
6,599618438904.997,1780931606130.444,86
6,599618438904.997,1780931606130.45,100
6,599618438904.997,1780931606130.456,118
6,599618438904.997,1780931606130.462,102
6,599618438904.997,1780931606130.467,111
6,599618438904.997,1780931606130.473,134
6,599618438904.997,1780931606130.479,136
6,599618438904.997,1780931606130.485,134
6,599618438904.997,1780931606130.491,122
6,599618438904.997,1780931606130.497,104
6,599618438904.997,1780931606130.503,120
6,599618438904.997,1780931606130.5088,138
6,599618438904.997,1780931606130.5151,141
6,599618438904.997,1780931606130.521,138
6,599618438904.997,1780931606130.527,131
6,599618438904.997,1780931606130.532,136
6,599618438904.997,1780931606130.538,154
6,599618438904.997,1780931606130.544,168
6,599618438904.997,1780931606130.5498,170
6,599618438904.997,1780931606130.555,156
6,599618438904.997,1780931606130.561,131
6,599618438904.997,1780931606130.5671,125
6,599618438904.997,1780931606130.573,141
6,599618438904.997,1780931606130.579,170
6,599618438904.997,1780931606130.585,204
6,599618438904.997,1780931606130.5908,220
6,599618438904.997,1780931606130.596,216
6,599618438904.997,1780931606130.6018,206
6,599618438904.997,1780931606130.6082,195
6,599618438904.997,1780931606130.614,179
6,599618438904.997,1780931606130.62,184
6,599618438904.997,1780931606130.626,181
6,599618438904.997,1780931606130.6318,143
6,599618438904.997,1780931606130.761,109
6,599618438904.997,1780931606130.782,116
6,599618438904.997,1780931606130.792,131
6,599618438904.997,1780931606130.8,125
6,599618438904.997,1780931606130.807,118
6,599618438904.997,1780931606130.813,127
6,599618438904.997,1780931606130.82,122
6,599618438904.997,1780931606130.827,81
6,599618438904.997,1780931606130.833,68
6,599618438904.997,1780931606130.839,97
6,599618438904.997,1780931606130.845,113
6,599618438904.997,1780931606130.851,113
6,599618438904.997,1780931606130.858,120
7,599618439466.5332,1780931606713.451,125
7,599618439466.5332,1780931606713.472,181
7,599618439466.5332,1780931606713.48,393
7,599618439466.5332,1780931606713.488,666
7,599618439466.5332,1780931606713.4958,557
7,599618439466.5332,1780931606713.5042,-109
7,599618439466.5332,1780931606713.511,-623
7,599618439466.5332,1780931606713.519,-395
7,599618439466.5332,1780931606713.5269,34
7,599618439466.5332,1780931606713.5342,102
7,599618439466.5332,1780931606713.543,45
7,599618439466.5332,1780931606713.551,109
7,599618439466.5332,1780931606713.5579,147
7,599618439466.5332,1780931606713.5662,122
7,599618439466.5332,1780931606713.573,111
7,599618439466.5332,1780931606713.5798,95
7,599618439466.5332,1780931606713.5872,90
7,599618439466.5332,1780931606713.595,120
7,599618439466.5332,1780931606713.602,147
7,599618439466.5332,1780931606713.609,152
7,599618439466.5332,1780931606713.6172,154
7,599618439466.5332,1780931606713.624,156
7,599618439466.5332,1780931606713.6309,166
7,599618439466.5332,1780931606713.6382,191
7,599618439466.5332,1780931606713.645,220
7,599618439466.5332,1780931606713.6519,238
7,599618439466.5332,1780931606713.66,243
7,599618439466.5332,1780931606713.667,250
7,599618439466.5332,1780931606713.674,277
7,599618439466.5332,1780931606713.681,311
7,599618439466.5332,1780931606713.688,332
7,599618439466.5332,1780931606713.695,345
7,599618439466.5332,1780931606713.703,341
7,599618439466.5332,1780931606713.71,322
7,599618439466.5332,1780931606713.717,341
7,599618439466.5332,1780931606713.7239,354
7,599618439466.5332,1780931606713.731,329
7,599618439466.5332,1780931606713.738,327
7,599618439466.5332,1780931606713.746,334
7,599618439466.5332,1780931606713.752,288
7,599618439466.5332,1780931606713.76,250
7,599618439466.5332,1780931606713.767,232
7,599618439466.5332,1780931606713.789,191
7,599618439466.5332,1780931606713.797,143
7,599618439466.5332,1780931606713.804,97
7,599618439466.5332,1780931606713.811,65
7,599618439466.5332,1780931606713.818,63
7,599618439466.5332,1780931606713.826,75
7,599618439466.5332,1780931606713.833,79
7,599618439466.5332,1780931606713.84,75
7,599618439466.5332,1780931606713.847,63
7,599618439466.5332,1780931606713.854,61
7,599618439466.5332,1780931606713.861,79
7,599618439466.5332,1780931606713.868,93
7,599618439466.5332,1780931606713.875,106
7,599618439466.5332,1780931606713.882,118
7,599618439466.5332,1780931606713.889,84
7,599618439466.5332,1780931606713.898,50
7,599618439466.5332,1780931606713.905,72
7,599618439466.5332,1780931606713.913,104
7,599618439466.5332,1780931606713.9202,106
7,599618439466.5332,1780931606713.927,93
7,599618439466.5332,1780931606713.9338,65
7,599618439466.5332,1780931606713.9412,50
7,599618439466.5332,1780931606713.948,47
7,599618439466.5332,1780931606713.956,54
7,599618439466.5332,1780931606713.9631,77
7,599618439466.5332,1780931606713.971,86
7,599618439466.5332,1780931606713.978,65
7,599618439466.5332,1780931606713.9849,65
7,599618439466.5332,1780931606713.9922,100
7,599618439466.5332,1780931606713.999,125
7,599618439466.5332,1780931606714.0059,125
8,599618440028.0695,1780931607254.441,113
8,599618440028.0695,1780931607254.468,109
8,599618440028.0695,1780931607254.479,113
8,599618440028.0695,1780931607254.483,84
8,599618440028.0695,1780931607254.486,34
8,599618440028.0695,1780931607254.489,36
8,599618440028.0695,1780931607254.492,40
8,599618440028.0695,1780931607254.4949,6
8,599618440028.0695,1780931607254.498,18
8,599618440028.0695,1780931607254.504,61
8,599618440028.0695,1780931607254.506,72
8,599618440028.0695,1780931607254.509,70
8,599618440028.0695,1780931607254.5112,47
8,599618440028.0695,1780931607254.514,22
8,599618440028.0695,1780931607254.517,38
8,599618440028.0695,1780931607254.519,79
8,599618440028.0695,1780931607254.522,90
8,599618440028.0695,1780931607254.524,88
8,599618440028.0695,1780931607254.527,90
8,599618440028.0695,1780931607254.529,88
8,599618440028.0695,1780931607254.532,100
8,599618440028.0695,1780931607254.534,129
8,599618440028.0695,1780931607254.537,131
8,599618440028.0695,1780931607254.54,97
8,599618440028.0695,1780931607254.542,54
8,599618440028.0695,1780931607254.545,34
8,599618440028.0695,1780931607254.547,47
8,599618440028.0695,1780931607254.55,79
8,599618440028.0695,1780931607254.552,100
8,599618440028.0695,1780931607254.555,97
8,599618440028.0695,1780931607254.557,88
8,599618440028.0695,1780931607254.56,111
8,599618440028.0695,1780931607254.562,136
8,599618440028.0695,1780931607254.565,113
8,599618440028.0695,1780931607254.567,97
8,599618440028.0695,1780931607254.57,127
8,599618440028.0695,1780931607254.573,138
8,599618440028.0695,1780931607254.575,125
8,599618440028.0695,1780931607254.5781,118
8,599618440028.0695,1780931607254.58,111
8,599618440028.0695,1780931607254.5828,120
8,599618440028.0695,1780931607254.585,136
8,599618440028.0695,1780931607254.588,134
8,599618440028.0695,1780931607254.59,125
8,599618440028.0695,1780931607254.5928,102
8,599618440028.0695,1780931607254.595,70
8,599618440028.0695,1780931607254.598,77
8,599618440028.0695,1780931607254.6,106
8,599618440028.0695,1780931607254.603,120
8,599618440028.0695,1780931607254.605,122
8,599618440028.0695,1780931607254.608,138
8,599618440028.0695,1780931607254.611,168
8,599618440028.0695,1780931607254.613,236
8,599618440028.0695,1780931607254.616,427
8,599618440028.0695,1780931607254.618,661
8,599618440028.0695,1780931607254.628,484
8,599618440028.0695,1780931607254.631,-211
8,599618440028.0695,1780931607254.633,-655
8,599618440028.0695,1780931607254.636,-386
8,599618440028.0695,1780931607254.639,20
8,599618440028.0695,1780931607254.641,136
8,599618440028.0695,1780931607254.6438,154
8,599618440028.0695,1780931607254.646,202
8,599618440028.0695,1780931607254.649,216
8,599618440028.0695,1780931607254.652,213
8,599618440028.0695,1780931607254.6538,197
8,599618440028.0695,1780931607254.657,159
8,599618440028.0695,1780931607254.659,152
8,599618440028.0695,1780931607254.662,181
8,599618440028.0695,1780931607254.664,195
8,599618440028.0695,1780931607254.667,197
8,599618440028.0695,1780931607254.669,213
8,599618440028.0695,1780931607254.672,234
9,599618440589.616,1780931607837.875,241
9,599618440589.616,1780931607837.898,250
9,599618440589.616,1780931607837.907,268
9,599618440589.616,1780931607837.915,263
9,599618440589.616,1780931607837.923,238
9,599618440589.616,1780931607837.931,243
9,599618440589.616,1780931607837.94,277
9,599618440589.616,1780931607837.9468,309
9,599618440589.616,1780931607837.955,334
9,599618440589.616,1780931607837.962,336
9,599618440589.616,1780931607837.969,325
9,599618440589.616,1780931607837.977,345
9,599618440589.616,1780931607837.9841,386
9,599618440589.616,1780931607837.991,393
9,599618440589.616,1780931607837.999,373
9,599618440589.616,1780931607838.006,363
9,599618440589.616,1780931607838.016,363
9,599618440589.616,1780931607838.023,345
9,599618440589.616,1780931607838.031,297
9,599618440589.616,1780931607838.038,257
9,599618440589.616,1780931607838.045,229
9,599618440589.616,1780931607838.053,172
9,599618440589.616,1780931607838.0598,120
9,599618440589.616,1780931607838.0798,120
9,599618440589.616,1780931607838.0881,113
9,599618440589.616,1780931607838.095,84
9,599618440589.616,1780931607838.103,61
9,599618440589.616,1780931607838.1099,34
9,599618440589.616,1780931607838.115,34
9,599618440589.616,1780931607838.1208,59
9,599618440589.616,1780931607838.127,72
9,599618440589.616,1780931607838.133,86
9,599618440589.616,1780931607838.1382,95
9,599618440589.616,1780931607838.144,93
9,599618440589.616,1780931607838.15,72
9,599618440589.616,1780931607838.155,43
9,599618440589.616,1780931607838.161,38
9,599618440589.616,1780931607838.167,47
9,599618440589.616,1780931607838.2239,54
9,599618440589.616,1780931607838.2312,70
9,599618440589.616,1780931607838.237,88
9,599618440589.616,1780931607838.244,102
9,599618440589.616,1780931607838.25,95
9,599618440589.616,1780931607838.2559,95
9,599618440589.616,1780931607838.261,116
9,599618440589.616,1780931607838.267,129
9,599618440589.616,1780931607838.273,113
9,599618440589.616,1780931607838.279,102
9,599618440589.616,1780931607838.284,111
9,599618440589.616,1780931607838.29,111
9,599618440589.616,1780931607838.296,77
9,599618440589.616,1780931607838.301,54
9,599618440589.616,1780931607838.307,77
9,599618440589.616,1780931607838.313,100
9,599618440589.616,1780931607838.319,86
9,599618440589.616,1780931607838.325,47
9,599618440589.616,1780931607838.388,18
9,599618440589.616,1780931607838.397,29
9,599618440589.616,1780931607838.4048,56
9,599618440589.616,1780931607838.412,63
9,599618440589.616,1780931607838.419,56
9,599618440589.616,1780931607838.4248,63
9,599618440589.616,1780931607838.4321,75
9,599618440589.616,1780931607838.438,86
9,599618440589.616,1780931607838.444,109
9,599618440589.616,1780931607838.45,120
9,599618440589.616,1780931607838.4558,109
9,599618440589.616,1780931607838.4631,104
9,599618440589.616,1780931607838.469,106
9,599618440589.616,1780931607838.4958,118
9,599618440589.616,1780931607838.5,129
9,599618440589.616,1780931607838.503,122
9,599618440589.616,1780931607838.5051,106
10,599618441151.1726,1780931608378.344,104
10,599618441151.1726,1780931608378.354,86
10,599618441151.1726,1780931608378.357,50
10,599618441151.1726,1780931608378.36,31
10,599618441151.1726,1780931608378.362,31
10,599618441151.1726,1780931608378.365,29
10,599618441151.1726,1780931608378.367,40
10,599618441151.1726,1780931608378.37,61
10,599618441151.1726,1780931608378.372,68
10,599618441151.1726,1780931608378.375,70
10,599618441151.1726,1780931608378.378,86
10,599618441151.1726,1780931608378.3801,109
10,599618441151.1726,1780931608378.3828,93
10,599618441151.1726,1780931608378.385,54
10,599618441151.1726,1780931608378.388,52
10,599618441151.1726,1780931608378.3901,59
10,599618441151.1726,1780931608378.3928,43
10,599618441151.1726,1780931608378.395,34
10,599618441151.1726,1780931608378.398,45
10,599618441151.1726,1780931608378.4011,54
10,599618441151.1726,1780931608378.4028,56
10,599618441151.1726,1780931608378.406,77
10,599618441151.1726,1780931608378.408,93
10,599618441151.1726,1780931608378.4111,70
10,599618441151.1726,1780931608378.4128,36
10,599618441151.1726,1780931608378.416,40
10,599618441151.1726,1780931608378.418,75
10,599618441151.1726,1780931608378.4211,118
10,599618441151.1726,1780931608378.4238,236
10,599618441151.1726,1780931608378.426,511
10,599618441151.1726,1780931608378.429,721
10,599618441151.1726,1780931608378.4338,350
10,599618441151.1726,1780931608378.437,-436
10,599618441151.1726,1780931608378.44,-700
10,599618441151.1726,1780931608378.4421,-272
10,599618441151.1726,1780931608378.4448,72
10,599618441151.1726,1780931608378.447,104
10,599618441151.1726,1780931608378.45,122
10,599618441151.1726,1780931608378.4521,166
10,599618441151.1726,1780931608378.4548,172
10,599618441151.1726,1780931608378.457,177
10,599618441151.1726,1780931608378.46,186
10,599618441151.1726,1780931608378.4622,177
10,599618441151.1726,1780931608378.4648,166
10,599618441151.1726,1780931608378.467,147
10,599618441151.1726,1780931608378.47,109
10,599618441151.1726,1780931608378.4722,95
10,599618441151.1726,1780931608378.4749,93
10,599618441151.1726,1780931608378.477,75
10,599618441151.1726,1780931608378.48,88
10,599618441151.1726,1780931608378.4832,125
10,599618441151.1726,1780931608378.4849,156
10,599618441151.1726,1780931608378.488,175
10,599618441151.1726,1780931608378.49,181
10,599618441151.1726,1780931608378.4932,193
10,599618441151.1726,1780931608378.4949,229
10,599618441151.1726,1780931608378.498,261
10,599618441151.1726,1780931608378.5,288
10,599618441151.1726,1780931608378.5032,327
10,599618441151.1726,1780931608378.505,359
10,599618441151.1726,1780931608378.508,377
10,599618441151.1726,1780931608378.51,391
10,599618441151.1726,1780931608378.5132,411
10,599618441151.1726,1780931608378.515,420
10,599618441151.1726,1780931608378.518,398
10,599618441151.1726,1780931608378.52,329
10,599618441151.1726,1780931608378.5232,275
10,599618441151.1726,1780931608378.525,250
10,599618441151.1726,1780931608378.528,193
10,599618441151.1726,1780931608378.53,106
10,599618441151.1726,1780931608378.533,34
10,599618441151.1726,1780931608378.535,-29
10,599618441151.1726,1780931608378.5378,-75
11,599618441712.7089,1780931608921.019,-70
11,599618441712.7089,1780931608921.0278,-47
11,599618441712.7089,1780931608921.031,-47
11,599618441712.7089,1780931608921.0342,-43
11,599618441712.7089,1780931608921.042,-31
11,599618441712.7089,1780931608921.0452,-20
11,599618441712.7089,1780931608921.0479,0
11,599618441712.7089,1780931608921.051,29
11,599618441712.7089,1780931608921.054,45
11,599618441712.7089,1780931608921.057,25
11,599618441712.7089,1780931608921.0588,4
11,599618441712.7089,1780931608921.062,9
11,599618441712.7089,1780931608921.064,-6
11,599618441712.7089,1780931608921.067,-36
11,599618441712.7089,1780931608921.07,-25
11,599618441712.7089,1780931608921.072,-2
11,599618441712.7089,1780931608921.0752,-4
11,599618441712.7089,1780931608921.077,9
11,599618441712.7089,1780931608921.08,31
11,599618441712.7089,1780931608921.082,34
11,599618441712.7089,1780931608921.085,45
11,599618441712.7089,1780931608921.088,36
11,599618441712.7089,1780931608921.092,-4
11,599618441712.7089,1780931608921.095,0
11,599618441712.7089,1780931608921.097,47
11,599618441712.7089,1780931608921.0999,79
11,599618441712.7089,1780931608921.102,109
11,599618441712.7089,1780931608921.105,131
11,599618441712.7089,1780931608921.108,104
11,599618441712.7089,1780931608921.1099,97
11,599618441712.7089,1780931608921.113,166
11,599618441712.7089,1780931608921.115,195
11,599618441712.7089,1780931608921.118,122
11,599618441712.7089,1780931608921.1199,47
11,599618441712.7089,1780931608921.123,45
11,599618441712.7089,1780931608921.126,72
11,599618441712.7089,1780931608921.128,88
11,599618441712.7089,1780931608921.1309,95
11,599618441712.7089,1780931608921.133,102
11,599618441712.7089,1780931608921.136,106
11,599618441712.7089,1780931608921.139,116
11,599618441712.7089,1780931608921.1409,122
11,599618441712.7089,1780931608921.144,131
11,599618441712.7089,1780931608921.146,143
11,599618441712.7089,1780931608921.16,127
11,599618441712.7089,1780931608921.1719,84
11,599618441712.7089,1780931608921.176,77
11,599618441712.7089,1780931608921.18,113
11,599618441712.7089,1780931608921.182,141
11,599618441712.7089,1780931608921.185,156
11,599618441712.7089,1780931608921.1882,179
11,599618441712.7089,1780931608921.191,193
11,599618441712.7089,1780931608921.1929,197
11,599618441712.7089,1780931608921.196,179
11,599618441712.7089,1780931608921.199,145
11,599618441712.7089,1780931608921.201,145
11,599618441712.7089,1780931608921.204,154
11,599618441712.7089,1780931608921.206,136
11,599618441712.7089,1780931608921.212,116
11,599618441712.7089,1780931608921.215,97
11,599618441712.7089,1780931608921.217,79
11,599618441712.7089,1780931608921.22,70
11,599618441712.7089,1780931608921.223,77
11,599618441712.7089,1780931608921.225,81
11,599618441712.7089,1780931608921.228,81
11,599618441712.7089,1780931608921.23,95
11,599618441712.7089,1780931608921.233,111
11,599618441712.7089,1780931608921.236,111
11,599618441712.7089,1780931608921.238,111
11,599618441712.7089,1780931608921.241,116
11,599618441712.7089,1780931608921.244,122
11,599618441712.7089,1780931608921.247,147
11,599618441712.7089,1780931608921.249,191
12,599618442274.24,1780931609548.6409,277
12,599618442274.24,1780931609548.6602,495
12,599618442274.24,1780931609548.667,691
12,599618442274.24,1780931609548.6729,377
12,599618442274.24,1780931609548.6792,-359
12,599618442274.24,1780931609548.685,-634
12,599618442274.24,1780931609548.691,-257
12,599618442274.24,1780931609548.697,43
12,599618442274.24,1780931609548.7039,54
12,599618442274.24,1780931609548.709,77
12,599618442274.24,1780931609548.715,134
12,599618442274.24,1780931609548.7212,138
12,599618442274.24,1780931609548.727,143
12,599618442274.24,1780931609548.733,159
12,599618442274.24,1780931609548.739,156
12,599618442274.24,1780931609548.744,159
12,599618442274.24,1780931609548.7512,179
12,599618442274.24,1780931609548.7559,191
12,599618442274.24,1780931609548.762,193
12,599618442274.24,1780931609548.768,184
12,599618442274.24,1780931609548.774,168
12,599618442274.24,1780931609548.779,159
12,599618442274.24,1780931609548.785,150
12,599618442274.24,1780931609548.791,141
12,599618442274.24,1780931609548.796,136
12,599618442274.24,1780931609548.802,129
12,599618442274.24,1780931609548.808,152
12,599618442274.24,1780931609548.813,188
12,599618442274.24,1780931609548.819,216
12,599618442274.24,1780931609548.825,252
12,599618442274.24,1780931609548.831,282
12,599618442274.24,1780931609548.836,304
12,599618442274.24,1780931609548.842,332
12,599618442274.24,1780931609548.848,354
12,599618442274.24,1780931609548.853,370
12,599618442274.24,1780931609548.859,386
12,599618442274.24,1780931609548.865,384
12,599618442274.24,1780931609548.87,361
12,599618442274.24,1780931609548.876,336
12,599618442274.24,1780931609548.882,286
12,599618442274.24,1780931609548.888,229
12,599618442274.24,1780931609548.893,197
12,599618442274.24,1780931609548.899,125
12,599618442274.24,1780931609548.9048,27
12,599618442274.24,1780931609548.9111,-9
12,599618442274.24,1780931609548.916,-2
12,599618442274.24,1780931609548.922,-6
12,599618442274.24,1780931609548.928,-31
12,599618442274.24,1780931609548.934,-56
12,599618442274.24,1780931609548.94,-43
12,599618442274.24,1780931609548.9458,-22
12,599618442274.24,1780931609548.9521,-36
12,599618442274.24,1780931609548.958,-50
12,599618442274.24,1780931609548.964,-29
12,599618442274.24,1780931609548.969,-2
12,599618442274.24,1780931609548.975,15
12,599618442274.24,1780931609548.981,22
12,599618442274.24,1780931609548.9868,27
12,599618442274.24,1780931609549.0078,43
12,599618442274.24,1780931609549.0142,54
12,599618442274.24,1780931609549.02,70
12,599618442274.24,1780931609549.0261,93
12,599618442274.24,1780931609549.032,88
12,599618442274.24,1780931609549.0378,52
12,599618442274.24,1780931609549.043,27
12,599618442274.24,1780931609549.0488,29
12,599618442274.24,1780931609549.0552,38
12,599618442274.24,1780931609549.061,43
12,599618442274.24,1780931609549.0662,47
12,599618442274.24,1780931609549.072,59
12,599618442274.24,1780931609549.078,75
12,599618442274.24,1780931609549.084,63
12,599618442274.24,1780931609549.0889,31
13,599618442835.7712,1780931610045.355,43
13,599618442835.7712,1780931610045.374,75
13,599618442835.7712,1780931610045.384,81
13,599618442835.7712,1780931610045.392,79
13,599618442835.7712,1780931610045.4011,86
13,599618442835.7712,1780931610045.4111,102
13,599618442835.7712,1780931610045.418,109
13,599618442835.7712,1780931610045.4258,109
13,599618442835.7712,1780931610045.433,120
13,599618442835.7712,1780931610045.441,125
13,599618442835.7712,1780931610045.448,113
13,599618442835.7712,1780931610045.456,118
13,599618442835.7712,1780931610045.4631,143
13,599618442835.7712,1780931610045.47,156
13,599618442835.7712,1780931610045.4768,147
13,599618442835.7712,1780931610045.485,127
13,599618442835.7712,1780931610045.492,106
13,599618442835.7712,1780931610045.499,106
13,599618442835.7712,1780931610045.5068,131
13,599618442835.7712,1780931610045.5142,145
13,599618442835.7712,1780931610045.521,150
13,599618442835.7712,1780931610045.5288,163
13,599618442835.7712,1780931610045.5361,168
13,599618442835.7712,1780931610045.543,161
13,599618442835.7712,1780931610045.5562,163
13,599618442835.7712,1780931610045.563,159
13,599618442835.7712,1780931610045.571,141
13,599618442835.7712,1780931610045.5781,138
13,599618442835.7712,1780931610045.5862,141
13,599618442835.7712,1780931610045.593,131
13,599618442835.7712,1780931610045.5999,100
13,599618442835.7712,1780931610045.6082,50
13,599618442835.7712,1780931610045.615,25
13,599618442835.7712,1780931610045.622,31
13,599618442835.7712,1780931610045.63,38
13,599618442835.7712,1780931610045.637,43
13,599618442835.7712,1780931610045.644,59
13,599618442835.7712,1780931610045.651,70
13,599618442835.7712,1780931610045.6592,68
13,599618442835.7712,1780931610045.666,65
13,599618442835.7712,1780931610045.6729,77
13,599618442835.7712,1780931610045.681,84
13,599618442835.7712,1780931610045.695,77
13,599618442835.7712,1780931610045.7039,100
13,599618442835.7712,1780931610045.711,213
13,599618442835.7712,1780931610045.718,448
13,599618442835.7712,1780931610045.726,614
13,599618442835.7712,1780931610045.733,268
13,599618442835.7712,1780931610045.741,-436
13,599618442835.7712,1780931610045.748,-655
13,599618442835.7712,1780931610045.756,-243
13,599618442835.7712,1780931610045.763,65
13,599618442835.7712,1780931610045.77,61
13,599618442835.7712,1780931610045.778,72
13,599618442835.7712,1780931610045.785,125
13,599618442835.7712,1780931610045.792,116
13,599618442835.7712,1780931610045.8,113
13,599618442835.7712,1780931610045.905,138
13,599618442835.7712,1780931610045.9148,147
13,599618442835.7712,1780931610045.923,161
13,599618442835.7712,1780931610045.93,184
13,599618442835.7712,1780931610045.938,184
13,599618442835.7712,1780931610045.9448,181
13,599618442835.7712,1780931610045.982,197
13,599618442835.7712,1780931610046.032,200
13,599618442835.7712,1780931610046.0469,195
13,599618442835.7712,1780931610046.054,213
13,599618442835.7712,1780931610046.062,241
13,599618442835.7712,1780931610046.0688,254
13,599618442835.7712,1780931610046.077,261
13,599618442835.7712,1780931610046.084,275
13,599618442835.7712,1780931610046.091,300
13,599618442835.7712,1780931610046.0989,311
14,599618443397.3025,1780931610630.096,286
14,599618443397.3025,1780931610630.121,263
14,599618443397.3025,1780931610630.1292,288
14,599618443397.3025,1780931610630.136,327
14,599618443397.3025,1780931610630.1438,345
14,599618443397.3025,1780931610630.1511,368
14,599618443397.3025,1780931610630.158,377
14,599618443397.3025,1780931610630.165,311
14,599618443397.3025,1780931610630.1729,234
14,599618443397.3025,1780931610630.18,218
14,599618443397.3025,1780931610630.187,186
14,599618443397.3025,1780931610630.1948,127
14,599618443397.3025,1780931610630.2039,88
14,599618443397.3025,1780931610630.217,40
14,599618443397.3025,1780931610630.2239,-6
14,599618443397.3025,1780931610630.231,-13
14,599618443397.3025,1780931610630.352,-11
14,599618443397.3025,1780931610630.366,-25
14,599618443397.3025,1780931610630.374,-38
14,599618443397.3025,1780931610630.381,-65
14,599618443397.3025,1780931610630.388,-106
14,599618443397.3025,1780931610630.396,-125
14,599618443397.3025,1780931610630.403,-106
14,599618443397.3025,1780931610630.41,-79
14,599618443397.3025,1780931610630.418,-63
14,599618443397.3025,1780931610630.425,-52
14,599618443397.3025,1780931610630.432,-38
14,599618443397.3025,1780931610630.44,-22
14,599618443397.3025,1780931610630.447,-4
14,599618443397.3025,1780931610630.455,11
14,599618443397.3025,1780931610630.462,20
14,599618443397.3025,1780931610630.47,22
14,599618443397.3025,1780931610630.477,29
14,599618443397.3025,1780931610630.4841,36
14,599618443397.3025,1780931610630.492,38
14,599618443397.3025,1780931610630.4988,47
14,599618443397.3025,1780931610630.506,63
14,599618443397.3025,1780931610630.513,72
14,599618443397.3025,1780931610630.521,68
14,599618443397.3025,1780931610630.5461,61
14,599618443397.3025,1780931610630.554,47
14,599618443397.3025,1780931610630.561,11
14,599618443397.3025,1780931610630.568,-29
14,599618443397.3025,1780931610630.576,-45
14,599618443397.3025,1780931610630.583,-27
14,599618443397.3025,1780931610630.5898,2
14,599618443397.3025,1780931610630.5981,20
14,599618443397.3025,1780931610630.605,20
14,599618443397.3025,1780931610630.6118,25
14,599618443397.3025,1780931610630.6191,29
14,599618443397.3025,1780931610630.626,31
14,599618443397.3025,1780931610630.634,52
14,599618443397.3025,1780931610630.6409,79
14,599618443397.3025,1780931610630.648,88
14,599618443397.3025,1780931610630.655,79
14,599618443397.3025,1780931610630.6619,88
14,599618443397.3025,1780931610630.6702,118
14,599618443397.3025,1780931610630.679,125
14,599618443397.3025,1780931610630.686,113
14,599618443397.3025,1780931610630.6929,125
14,599618443397.3025,1780931610630.7012,129
14,599618443397.3025,1780931610630.708,81
14,599618443397.3025,1780931610630.7148,31
14,599618443397.3025,1780931610630.7222,50
14,599618443397.3025,1780931610630.729,86
14,599618443397.3025,1780931610630.7422,59
14,599618443397.3025,1780931610630.749,11
14,599618443397.3025,1780931610630.757,25
14,599618443397.3025,1780931610630.764,63
14,599618443397.3025,1780931610630.799,88
14,599618443397.3025,1780931610630.807,120
14,599618443397.3025,1780931610630.815,145
14,599618443397.3025,1780931610630.822,129
15,599618443958.8336,1780931611170.21,93
15,599618443958.8336,1780931611170.2559,104
15,599618443958.8336,1780931611170.27,138
15,599618443958.8336,1780931611170.283,120
15,599618443958.8336,1780931611170.296,90
15,599618443958.8336,1780931611170.311,95
15,599618443958.8336,1780931611170.334,79
15,599618443958.8336,1780931611170.347,45
15,599618443958.8336,1780931611170.36,25
15,599618443958.8336,1780931611170.373,0
15,599618443958.8336,1780931611170.383,-20
15,599618443958.8336,1780931611170.392,-34
15,599618443958.8336,1780931611170.4011,-34
15,599618443958.8336,1780931611170.4111,-20
15,599618443958.8336,1780931611170.419,2
15,599618443958.8336,1780931611170.429,15
15,599618443958.8336,1780931611170.438,11
15,599618443958.8336,1780931611170.447,4
15,599618443958.8336,1780931611170.4568,27
15,599618443958.8336,1780931611170.466,152
15,599618443958.8336,1780931611170.476,448
15,599618443958.8336,1780931611170.485,684
15,599618443958.8336,1780931611170.4941,343
15,599618443958.8336,1780931611170.503,-438
15,599618443958.8336,1780931611170.513,-734
15,599618443958.8336,1780931611170.522,-336
15,599618443958.8336,1780931611170.532,22
15,599618443958.8336,1780931611170.541,61
15,599618443958.8336,1780931611170.55,45
15,599618443958.8336,1780931611170.5588,56
15,599618443958.8336,1780931611170.5679,56
15,599618443958.8336,1780931611170.5771,70
15,599618443958.8336,1780931611170.5862,95
15,599618443958.8336,1780931611170.595,95
15,599618443958.8336,1780931611170.605,90
15,599618443958.8336,1780931611170.614,97
15,599618443958.8336,1780931611170.623,106
15,599618443958.8336,1780931611170.633,120
15,599618443958.8336,1780931611170.6418,138
15,599618443958.8336,1780931611170.651,127
15,599618443958.8336,1780931611170.66,104
15,599618443958.8336,1780931611170.6692,120
15,599618443958.8336,1780931611170.6792,147
15,599618443958.8336,1780931611170.688,166
15,599618443958.8336,1780931611170.698,181
15,599618443958.8336,1780931611170.707,204
15,599618443958.8336,1780931611170.717,229
15,599618443958.8336,1780931611170.726,250
15,599618443958.8336,1780931611170.7349,254
15,599618443958.8336,1780931611170.7449,257
15,599618443958.8336,1780931611170.754,279
15,599618443958.8336,1780931611170.764,307
15,599618443958.8336,1780931611170.774,332
15,599618443958.8336,1780931611170.783,354
15,599618443958.8336,1780931611170.792,366
15,599618443958.8336,1780931611170.801,354
15,599618443958.8336,1780931611170.81,309
15,599618443958.8336,1780931611170.819,245
15,599618443958.8336,1780931611170.829,197
15,599618443958.8336,1780931611170.8381,163
15,599618443958.8336,1780931611170.847,109
15,599618443958.8336,1780931611170.857,52
15,599618443958.8336,1780931611170.866,15
15,599618443958.8336,1780931611170.903,-20
15,599618443958.8336,1780931611170.912,-43
15,599618443958.8336,1780931611170.922,-36
15,599618443958.8336,1780931611170.9312,-27
15,599618443958.8336,1780931611170.94,-20
15,599618443958.8336,1780931611170.949,-13
15,599618443958.8336,1780931611170.958,-27
15,599618443958.8336,1780931611170.967,-43
15,599618443958.8336,1780931611170.977,-27
15,599618443958.8336,1780931611170.9858,-11
16,599618444520.3903,1780931611709.2231,0
16,599618444520.3903,1780931611709.2532,15
16,599618444520.3903,1780931611709.26,29
16,599618444520.3903,1780931611709.2659,38
16,599618444520.3903,1780931611709.272,50
16,599618444520.3903,1780931611709.279,59
16,599618444520.3903,1780931611709.285,65
16,599618444520.3903,1780931611709.292,59
16,599618444520.3903,1780931611709.299,31
16,599618444520.3903,1780931611709.305,25
16,599618444520.3903,1780931611709.311,36
16,599618444520.3903,1780931611709.3179,40
16,599618444520.3903,1780931611709.323,40
16,599618444520.3903,1780931611709.336,27
16,599618444520.3903,1780931611709.342,13
16,599618444520.3903,1780931611709.3489,18
16,599618444520.3903,1780931611709.354,-2
16,599618444520.3903,1780931611709.361,-52
16,599618444520.3903,1780931611709.367,-59
16,599618444520.3903,1780931611709.373,-31
16,599618444520.3903,1780931611709.391,-27
16,599618444520.3903,1780931611709.397,-13
16,599618444520.3903,1780931611709.403,20
16,599618444520.3903,1780931611709.409,31
16,599618444520.3903,1780931611709.415,36
16,599618444520.3903,1780931611709.421,45
16,599618444520.3903,1780931611709.427,50
16,599618444520.3903,1780931611709.433,61
16,599618444520.3903,1780931611709.44,77
16,599618444520.3903,1780931611709.446,86
16,599618444520.3903,1780931611709.452,84
16,599618444520.3903,1780931611709.458,90
16,599618444520.3903,1780931611709.463,109
16,599618444520.3903,1780931611709.47,118
16,599618444520.3903,1780931611709.475,120
16,599618444520.3903,1780931611709.482,120
16,599618444520.3903,1780931611709.487,100
16,599618444520.3903,1780931611709.493,56
16,599618444520.3903,1780931611709.4988,43
16,599618444520.3903,1780931611709.5051,79
16,599618444520.3903,1780931611709.512,97
16,599618444520.3903,1780931611709.518,88
16,599618444520.3903,1780931611709.523,75
16,599618444520.3903,1780931611709.5288,59
16,599618444520.3903,1780931611709.535,68
16,599618444520.3903,1780931611709.541,93
16,599618444520.3903,1780931611709.547,100
16,599618444520.3903,1780931611709.553,93
16,599618444520.3903,1780931611709.558,90
16,599618444520.3903,1780931611709.565,106
16,599618444520.3903,1780931611709.5708,134
16,599618444520.3903,1780931611709.5771,138
16,599618444520.3903,1780931611709.583,122
16,599618444520.3903,1780931611709.589,113
16,599618444520.3903,1780931611709.595,111
16,599618444520.3903,1780931611709.602,113
16,599618444520.3903,1780931611709.6082,104
16,599618444520.3903,1780931611709.614,63
16,599618444520.3903,1780931611709.62,2
16,599618444520.3903,1780931611709.626,-27
16,599618444520.3903,1780931611709.6318,-22
16,599618444520.3903,1780931611709.6392,-13
16,599618444520.3903,1780931611709.645,9
16,599618444520.3903,1780931611709.651,45
16,599618444520.3903,1780931611709.657,52
16,599618444520.3903,1780931611709.664,36
16,599618444520.3903,1780931611709.6702,43
16,599618444520.3903,1780931611709.676,72
16,599618444520.3903,1780931611709.682,100
16,599618444520.3903,1780931611709.688,125
16,599618444520.3903,1780931611709.6938,147
16,599618444520.3903,1780931611709.7002,209
16,599618444520.3903,1780931611709.706,427
17,599618445081.9265,1780931612293.999,707
17,599618445081.9265,1780931612294.05,548
17,599618445081.9265,1780931612294.064,-156
17,599618445081.9265,1780931612294.0781,-620
17,599618445081.9265,1780931612294.104,-377
17,599618445081.9265,1780931612294.118,13
17,599618445081.9265,1780931612294.132,129
17,599618445081.9265,1780931612294.147,150
17,599618445081.9265,1780931612294.16,179
17,599618445081.9265,1780931612294.173,154
17,599618445081.9265,1780931612294.186,102
17,599618445081.9265,1780931612294.2,88
17,599618445081.9265,1780931612294.2131,93
17,599618445081.9265,1780931612294.2258,131
17,599618445081.9265,1780931612294.3708,202
17,599618445081.9265,1780931612294.3872,197
17,599618445081.9265,1780931612294.4,145
17,599618445081.9265,1780931612294.413,166
17,599618445081.9265,1780931612294.426,204
17,599618445081.9265,1780931612294.44,211
17,599618445081.9265,1780931612294.453,232
17,599618445081.9265,1780931612294.467,238
17,599618445081.9265,1780931612294.479,232
17,599618445081.9265,1780931612294.492,263
17,599618445081.9265,1780931612294.505,304
17,599618445081.9265,1780931612294.518,288
17,599618445081.9265,1780931612294.537,257
17,599618445081.9265,1780931612294.55,277
17,599618445081.9265,1780931612294.628,307
17,599618445081.9265,1780931612294.647,304
17,599618445081.9265,1780931612294.6602,334
17,599618445081.9265,1780931612294.6729,400
17,599618445081.9265,1780931612294.686,416
17,599618445081.9265,1780931612294.699,375
17,599618445081.9265,1780931612294.7122,341
17,599618445081.9265,1780931612294.7249,329
17,599618445081.9265,1780931612294.738,302
17,599618445081.9265,1780931612294.751,252
17,599618445081.9265,1780931612294.768,204
17,599618445081.9265,1780931612294.7842,143
17,599618445081.9265,1780931612294.851,75
17,599618445081.9265,1780931612294.875,50
17,599618445081.9265,1780931612294.889,43
17,599618445081.9265,1780931612296.122,15
17,599618445081.9265,1780931612296.15,2
17,599618445081.9265,1780931612296.16,0
17,599618445081.9265,1780931612296.17,-38
17,599618445081.9265,1780931612296.18,-47
17,599618445081.9265,1780931612296.189,6
17,599618445081.9265,1780931612296.198,31
17,599618445081.9265,1780931612296.208,15
17,599618445081.9265,1780931612296.218,11
17,599618445081.9265,1780931612296.227,11
17,599618445081.9265,1780931612296.237,4
17,599618445081.9265,1780931612296.249,18
17,599618445081.9265,1780931612296.259,40
17,599618445081.9265,1780931612296.269,45
17,599618445081.9265,1780931612296.279,45
17,599618445081.9265,1780931612296.289,56
17,599618445081.9265,1780931612296.298,36
17,599618445081.9265,1780931612296.3071,11
17,599618445081.9265,1780931612296.3171,52
17,599618445081.9265,1780931612296.326,102
17,599618445081.9265,1780931612296.336,86
17,599618445081.9265,1780931612296.345,61
17,599618445081.9265,1780931612296.355,75
17,599618445081.9265,1780931612296.364,72
17,599618445081.9265,1780931612296.3728,38
17,599618445081.9265,1780931612296.417,40
17,599618445081.9265,1780931612296.427,52
17,599618445081.9265,1780931612296.437,15
17,599618445081.9265,1780931612296.446,-11
17,599618445081.9265,1780931612296.456,0
18,599618445643.4578,1780931612878.0369,25
18,599618445643.4578,1780931612878.108,56
18,599618445643.4578,1780931612878.147,68
18,599618445643.4578,1780931612878.156,63
18,599618445643.4578,1780931612878.164,70
18,599618445643.4578,1780931612878.1719,100
18,599618445643.4578,1780931612878.179,120
18,599618445643.4578,1780931612878.187,50
18,599618445643.4578,1780931612878.194,-70
18,599618445643.4578,1780931612878.202,-38
18,599618445643.4578,1780931612878.601,81
18,599618445643.4578,1780931612878.614,61
18,599618445643.4578,1780931612878.621,-11
18,599618445643.4578,1780931612878.629,6
18,599618445643.4578,1780931612878.636,9
18,599618445643.4578,1780931612878.644,-34
18,599618445643.4578,1780931612878.651,-6
18,599618445643.4578,1780931612878.659,52
18,599618445643.4578,1780931612878.666,52
18,599618445643.4578,1780931612878.673,25
18,599618445643.4578,1780931612878.68,25
18,599618445643.4578,1780931612878.688,61
18,599618445643.4578,1780931612878.695,97
18,599618445643.4578,1780931612878.702,95
18,599618445643.4578,1780931612878.75,106
18,599618445643.4578,1780931612878.762,152
18,599618445643.4578,1780931612878.77,163
18,599618445643.4578,1780931612878.778,143
18,599618445643.4578,1780931612878.785,156
18,599618445643.4578,1780931612878.792,147
18,599618445643.4578,1780931612878.7998,100
18,599618445643.4578,1780931612878.8071,109
18,599618445643.4578,1780931612878.814,106
18,599618445643.4578,1780931612878.822,65
18,599618445643.4578,1780931612878.829,75
18,599618445643.4578,1780931612878.836,59
18,599618445643.4578,1780931612879.252,-20
18,599618445643.4578,1780931612879.272,-34
18,599618445643.4578,1780931612879.281,2
18,599618445643.4578,1780931612879.2888,-2
18,599618445643.4578,1780931612879.2961,-6
18,599618445643.4578,1780931612879.304,29
18,599618445643.4578,1780931612879.311,72
18,599618445643.4578,1780931612879.318,86
18,599618445643.4578,1780931612879.325,86
18,599618445643.4578,1780931612879.333,102
18,599618445643.4578,1780931612879.3398,106
18,599618445643.4578,1780931612879.3472,136
18,599618445643.4578,1780931612879.354,172
18,599618445643.4578,1780931612879.362,250
18,599618445643.4578,1780931612879.3691,573
18,599618445643.4578,1780931612879.376,850
18,599618445643.4578,1780931612879.404,441
18,599618445643.4578,1780931612879.76,-391
18,599618445643.4578,1780931612879.7751,-664
18,599618445643.4578,1780931612879.783,-279
18,599618445643.4578,1780931612879.8772,25
18,599618445643.4578,1780931612879.8909,43
18,599618445643.4578,1780931612879.899,63
18,599618445643.4578,1780931612879.907,134
18,599618445643.4578,1780931612879.917,154
18,599618445643.4578,1780931612879.924,102
18,599618445643.4578,1780931612879.932,34
18,599618445643.4578,1780931612879.94,36
18,599618445643.4578,1780931612879.947,120
18,599618445643.4578,1780931612879.954,168
18,599618445643.4578,1780931612879.962,154
18,599618445643.4578,1780931612879.969,161
18,599618445643.4578,1780931612879.976,188
18,599618445643.4578,1780931612879.984,206
18,599618445643.4578,1780931612879.991,222
18,599618445643.4578,1780931612879.998,216
18,599618445643.4578,1780931612880.006,211
19,599618446204.989,1780931613466.4868,250
19,599618446204.989,1780931613466.5051,272
19,599618446204.989,1780931613466.5151,259
19,599618446204.989,1780931613466.5251,245
19,599618446204.989,1780931613466.5352,232
19,599618446204.989,1780931613466.544,243
19,599618446204.989,1780931613466.553,268
19,599618446204.989,1780931613466.562,288
19,599618446204.989,1780931613466.571,322
19,599618446204.989,1780931613466.584,352
19,599618446204.989,1780931613466.593,354
19,599618446204.989,1780931613466.603,318
19,599618446204.989,1780931613466.612,311
19,599618446204.989,1780931613466.6208,322
19,599618446204.989,1780931613466.63,263
19,599618446204.989,1780931613466.667,195
19,599618446204.989,1780931613466.688,156
19,599618446204.989,1780931613466.697,104
19,599618446204.989,1780931613466.716,68
19,599618446204.989,1780931613466.726,47
19,599618446204.989,1780931613466.7349,2
19,599618446204.989,1780931613466.746,-20
19,599618446204.989,1780931613466.755,-27
19,599618446204.989,1780931613466.765,-75
19,599618446204.989,1780931613466.774,-93
19,599618446204.989,1780931613466.784,-68
19,599618446204.989,1780931613466.793,-77
19,599618446204.989,1780931613466.802,-86
19,599618446204.989,1780931613466.9348,-63
19,599618446204.989,1780931613466.95,-13
19,599618446204.989,1780931613466.959,20
19,599618446204.989,1780931613466.969,-9
19,599618446204.989,1780931613466.978,-43
19,599618446204.989,1780931613467.06,-47
19,599618446204.989,1780931613467.082,-34
19,599618446204.989,1780931613467.092,31
19,599618446204.989,1780931613467.102,70
19,599618446204.989,1780931613467.111,40
19,599618446204.989,1780931613467.1208,59
19,599618446204.989,1780931613467.16,116
19,599618446204.989,1780931613467.1719,88
19,599618446204.989,1780931613467.182,38
19,599618446204.989,1780931613467.218,72
19,599618446204.989,1780931613467.239,104
19,599618446204.989,1780931613467.25,65
19,599618446204.989,1780931613467.2598,20
19,599618446204.989,1780931613467.27,27
19,599618446204.989,1780931613467.28,63
19,599618446204.989,1780931613467.29,81
19,599618446204.989,1780931613467.299,88
19,599618446204.989,1780931613467.396,100
19,599618446204.989,1780931613467.4102,104
19,599618446204.989,1780931613467.4202,97
19,599618446204.989,1780931613467.429,81
19,599618446204.989,1780931613467.438,65
19,599618446204.989,1780931613467.4622,54
19,599618446204.989,1780931613467.471,54
19,599618446204.989,1780931613467.481,70
19,599618446204.989,1780931613467.489,56
19,599618446204.989,1780931613467.497,27
19,599618446204.989,1780931613467.504,59
19,599618446204.989,1780931613467.511,104
19,599618446204.989,1780931613467.593,97
19,599618446204.989,1780931613467.607,61
19,599618446204.989,1780931613467.614,20
19,599618446204.989,1780931613467.724,2
19,599618446204.989,1780931613467.7341,27
19,599618446204.989,1780931613467.752,63
19,599618446204.989,1780931613467.7588,61
19,599618446204.989,1780931613467.767,38
19,599618446204.989,1780931613467.774,50
19,599618446204.989,1780931613467.781,77
19,599618446204.989,1780931613467.7888,86
20,599618446766.5354,1780931614003.418,116
20,599618446766.5354,1780931614003.429,138
20,599618446766.5354,1780931614003.4321,118
20,599618446766.5354,1780931614003.4348,118
20,599618446766.5354,1780931614003.438,122
20,599618446766.5354,1780931614003.44,88
20,599618446766.5354,1780931614003.443,88
20,599618446766.5354,1780931614003.446,104
20,599618446766.5354,1780931614003.448,86
20,599618446766.5354,1780931614003.4512,95
20,599618446766.5354,1780931614003.4548,100
20,599618446766.5354,1780931614003.457,29
20,599618446766.5354,1780931614003.46,-25
20,599618446766.5354,1780931614003.4631,-22
20,599618446766.5354,1780931614003.4648,-29
20,599618446766.5354,1780931614003.468,-11
20,599618446766.5354,1780931614003.47,2
20,599618446766.5354,1780931614003.4731,-52
20,599618446766.5354,1780931614003.4758,-45
20,599618446766.5354,1780931614003.478,6
20,599618446766.5354,1780931614003.481,11
20,599618446766.5354,1780931614003.4832,22
20,599618446766.5354,1780931614003.4858,68
20,599618446766.5354,1780931614003.489,279
20,599618446766.5354,1780931614003.491,648
20,599618446766.5354,1780931614003.4941,643
20,599618446766.5354,1780931614003.4958,-43
20,599618446766.5354,1780931614003.499,-716
20,599618446766.5354,1780931614003.502,-605
20,599618446766.5354,1780931614003.5042,-109
20,599618446766.5354,1780931614003.5068,72
20,599618446766.5354,1780931614003.509,45
20,599618446766.5354,1780931614003.512,59
20,599618446766.5354,1780931614003.5142,68
20,599618446766.5354,1780931614003.5168,79
20,599618446766.5354,1780931614003.519,122
20,599618446766.5354,1780931614003.522,118
20,599618446766.5354,1780931614003.525,34
20,599618446766.5354,1780931614003.5269,-6
20,599618446766.5354,1780931614003.53,34
20,599618446766.5354,1780931614003.532,95
20,599618446766.5354,1780931614003.535,159
20,599618446766.5354,1780931614003.5369,156
20,599618446766.5354,1780931614003.54,84
20,599618446766.5354,1780931614003.542,70
20,599618446766.5354,1780931614003.5452,113
20,599618446766.5354,1780931614003.5469,143
20,599618446766.5354,1780931614003.55,168
20,599618446766.5354,1780931614003.553,188
20,599618446766.5354,1780931614003.5552,156
20,599618446766.5354,1780931614003.5579,125
20,599618446766.5354,1780931614003.56,179
20,599618446766.5354,1780931614003.563,213
20,599618446766.5354,1780931614003.5652,197
20,599618446766.5354,1780931614003.5679,234
20,599618446766.5354,1780931614003.571,277
20,599618446766.5354,1780931614003.573,275
20,599618446766.5354,1780931614003.576,257
20,599618446766.5354,1780931614003.578,247
20,599618446766.5354,1780931614003.581,247
20,599618446766.5354,1780931614003.583,243
20,599618446766.5354,1780931614003.586,209
20,599618446766.5354,1780931614003.588,147
20,599618446766.5354,1780931614003.591,118
20,599618446766.5354,1780931614003.593,90
20,599618446766.5354,1780931614003.596,22
20,599618446766.5354,1780931614003.598,-45
20,599618446766.5354,1780931614003.601,-61
20,599618446766.5354,1780931614003.604,-63
20,599618446766.5354,1780931614003.607,-56
20,599618446766.5354,1780931614003.6099,-9
20,599618446766.5354,1780931614003.612,4
20,599618446766.5354,1780931614003.615,-81
21,599618447328.0819,1780931614588.481,-172
21,599618447328.0819,1780931614588.521,-122
21,599618447328.0819,1780931614588.5369,-38
21,599618447328.0819,1780931614588.5488,-47
21,599618447328.0819,1780931614588.563,-40
21,599618447328.0819,1780931614588.5762,-100
21,599618447328.0819,1780931614588.593,-175
21,599618447328.0819,1780931614588.6062,-102
21,599618447328.0819,1780931614588.619,-38
21,599618447328.0819,1780931614588.632,-54
21,599618447328.0819,1780931614588.644,-52
21,599618447328.0819,1780931614588.6582,-40
21,599618447328.0819,1780931614588.671,-59
21,599618447328.0819,1780931614588.684,-56
21,599618447328.0819,1780931614588.696,-15
21,599618447328.0819,1780931614588.7092,31
21,599618447328.0819,1780931614588.722,20
21,599618447328.0819,1780931614588.734,-47
21,599618447328.0819,1780931614588.747,-47
21,599618447328.0819,1780931614588.759,-38
21,599618447328.0819,1780931614588.772,-63
21,599618447328.0819,1780931614588.785,-36
21,599618447328.0819,1780931614588.797,-18
21,599618447328.0819,1780931614588.81,-54
21,599618447328.0819,1780931614588.8218,-29
21,599618447328.0819,1780931614588.836,13
21,599618447328.0819,1780931614588.8481,-27
21,599618447328.0819,1780931614588.86,-43
21,599618447328.0819,1780931614588.8728,13
21,599618447328.0819,1780931614588.886,11
21,599618447328.0819,1780931614588.909,-36
21,599618447328.0819,1780931614588.923,-25
21,599618447328.0819,1780931614588.9348,45
21,599618447328.0819,1780931614588.948,77
21,599618447328.0819,1780931614588.961,20
21,599618447328.0819,1780931614588.974,-31
21,599618447328.0819,1780931614589.008,15
21,599618447328.0819,1780931614589.022,59
21,599618447328.0819,1780931614589.0342,34
21,599618447328.0819,1780931614589.0469,52
21,599618447328.0819,1780931614589.06,50
21,599618447328.0819,1780931614589.072,-27
21,599618447328.0819,1780931614589.0852,-13
21,599618447328.0819,1780931614589.098,97
21,599618447328.0819,1780931614589.1099,136
21,599618447328.0819,1780931614589.123,77
21,599618447328.0819,1780931614589.136,29
21,599618447328.0819,1780931614589.148,68
21,599618447328.0819,1780931614589.161,102
21,599618447328.0819,1780931614589.187,79
21,599618447328.0819,1780931614589.199,102
21,599618447328.0819,1780931614589.212,122
21,599618447328.0819,1780931614589.228,50
21,599618447328.0819,1780931614589.241,-13
21,599618447328.0819,1780931614589.253,-11
21,599618447328.0819,1780931614589.266,2
21,599618447328.0819,1780931614589.279,34
21,599618447328.0819,1780931614589.292,68
21,599618447328.0819,1780931614589.304,81
21,599618447328.0819,1780931614589.3171,95
21,599618447328.0819,1780931614589.33,72
21,599618447328.0819,1780931614589.344,13
21,599618447328.0819,1780931614589.357,20
21,599618447328.0819,1780931614589.37,61
21,599618447328.0819,1780931614589.3828,65
21,599618447328.0819,1780931614589.395,77
21,599618447328.0819,1780931614589.408,70
21,599618447328.0819,1780931614589.4202,113
21,599618447328.0819,1780931614589.432,341
21,599618447328.0819,1780931614589.445,625
21,599618447328.0819,1780931614589.458,548
21,599618447328.0819,1780931614589.4712,-97
21,599618447328.0819,1780931614589.483,-634
22,599618447889.613,1780931615082.863,-457
22,599618447889.613,1780931615082.8828,-75
22,599618447889.613,1780931615082.8909,15
22,599618447889.613,1780931615082.898,45
22,599618447889.613,1780931615082.905,138
22,599618447889.613,1780931615082.9111,161
22,599618447889.613,1780931615082.917,150
22,599618447889.613,1780931615082.9229,131
22,599618447889.613,1780931615082.9302,106
22,599618447889.613,1780931615082.936,141
22,599618447889.613,1780931615082.942,138
22,599618447889.613,1780931615082.949,77
22,599618447889.613,1780931615082.9548,95
22,599618447889.613,1780931615082.9639,154
22,599618447889.613,1780931615082.9712,152
22,599618447889.613,1780931615082.976,141
22,599618447889.613,1780931615082.9822,136
22,599618447889.613,1780931615082.988,104
22,599618447889.613,1780931615082.994,131
22,599618447889.613,1780931615083.0,200
22,599618447889.613,1780931615083.0059,188
22,599618447889.613,1780931615083.0122,161
22,599618447889.613,1780931615083.018,206
22,599618447889.613,1780931615083.024,282
22,599618447889.613,1780931615083.03,336
22,599618447889.613,1780931615083.036,325
22,599618447889.613,1780931615083.042,293
22,599618447889.613,1780931615083.048,348
22,599618447889.613,1780931615083.054,393
22,599618447889.613,1780931615083.06,320
22,599618447889.613,1780931615083.066,252
22,599618447889.613,1780931615083.071,325
22,599618447889.613,1780931615083.077,386
22,599618447889.613,1780931615083.084,300
22,599618447889.613,1780931615083.105,193
22,599618447889.613,1780931615083.111,131
22,599618447889.613,1780931615083.117,111
22,599618447889.613,1780931615083.123,143
22,599618447889.613,1780931615083.129,113
22,599618447889.613,1780931615083.134,18
22,599618447889.613,1780931615083.14,9
22,599618447889.613,1780931615083.146,75
22,599618447889.613,1780931615083.152,106
22,599618447889.613,1780931615083.158,43
22,599618447889.613,1780931615083.164,-59
22,599618447889.613,1780931615083.17,-63
22,599618447889.613,1780931615083.175,15
22,599618447889.613,1780931615083.181,50
22,599618447889.613,1780931615083.187,38
22,599618447889.613,1780931615083.193,11
22,599618447889.613,1780931615083.198,-38
22,599618447889.613,1780931615083.204,-59
22,599618447889.613,1780931615083.21,25
22,599618447889.613,1780931615083.216,77
22,599618447889.613,1780931615083.222,15
22,599618447889.613,1780931615083.228,34
22,599618447889.613,1780931615083.2341,136
22,599618447889.613,1780931615083.24,118
22,599618447889.613,1780931615083.246,27
22,599618447889.613,1780931615083.252,109
22,599618447889.613,1780931615083.2578,354
22,599618447889.613,1780931615083.263,425
22,599618447889.613,1780931615083.2688,204
22,599618447889.613,1780931615083.2751,88
22,599618447889.613,1780931615083.281,200
22,599618447889.613,1780931615083.2861,195
22,599618447889.613,1780931615083.292,104
22,599618447889.613,1780931615083.2979,154
22,599618447889.613,1780931615083.304,195
22,599618447889.613,1780931615083.3098,75
22,599618447889.613,1780931615083.3162,-36
22,599618447889.613,1780931615083.321,31
22,599618447889.613,1780931615083.3271,97
23,599618448451.1443,1780931615713.068,20
23,599618448451.1443,1780931615713.0981,6
23,599618448451.1443,1780931615713.105,72
23,599618448451.1443,1780931615713.1108,31
23,599618448451.1443,1780931615713.117,-18
23,599618448451.1443,1780931615713.145,18
23,599618448451.1443,1780931615713.185,54
23,599618448451.1443,1780931615713.2002,43
23,599618448451.1443,1780931615713.2139,18
23,599618448451.1443,1780931615713.258,36
23,599618448451.1443,1780931615713.272,122
23,599618448451.1443,1780931615713.285,191
23,599618448451.1443,1780931615713.298,170
23,599618448451.1443,1780931615713.312,143
23,599618448451.1443,1780931615713.324,122
23,599618448451.1443,1780931615713.337,65
23,599618448451.1443,1780931615713.35,81
23,599618448451.1443,1780931615713.389,152
23,599618448451.1443,1780931615713.403,95
23,599618448451.1443,1780931615713.416,20
23,599618448451.1443,1780931615713.428,63
23,599618448451.1443,1780931615713.441,50
23,599618448451.1443,1780931615713.4531,-2
23,599618448451.1443,1780931615713.4658,-11
23,599618448451.1443,1780931615713.479,-97
23,599618448451.1443,1780931615713.492,-63
23,599618448451.1443,1780931615713.5042,152
23,599618448451.1443,1780931615713.5178,159
23,599618448451.1443,1780931615713.53,-45
23,599618448451.1443,1780931615713.543,-52
23,599618448451.1443,1780931615713.5552,163
23,599618448451.1443,1780931615713.5679,284
23,599618448451.1443,1780931615713.5798,272
23,599618448451.1443,1780931615713.593,400
23,599618448451.1443,1780931615713.605,707
23,599618448451.1443,1780931615713.618,623
23,599618448451.1443,1780931615713.6309,-141
23,599618448451.1443,1780931615713.644,-634
23,599618448451.1443,1780931615713.656,-345
23,599618448451.1443,1780931615713.669,-61
23,599618448451.1443,1780931615713.681,20
23,599618448451.1443,1780931615713.694,166
23,599618448451.1443,1780931615713.707,161
23,599618448451.1443,1780931615713.719,43
23,599618448451.1443,1780931615713.732,113
23,599618448451.1443,1780931615713.745,243
23,599618448451.1443,1780931615713.757,193
23,599618448451.1443,1780931615713.769,93
23,599618448451.1443,1780931615713.782,81
23,599618448451.1443,1780931615713.794,95
23,599618448451.1443,1780931615713.8071,118
23,599618448451.1443,1780931615713.82,172
23,599618448451.1443,1780931615713.833,175
23,599618448451.1443,1780931615713.846,118
23,599618448451.1443,1780931615713.858,134
23,599618448451.1443,1780931615713.871,243
23,599618448451.1443,1780931615713.884,263
23,599618448451.1443,1780931615713.897,156
23,599618448451.1443,1780931615713.909,163
23,599618448451.1443,1780931615713.922,254
23,599618448451.1443,1780931615713.9348,209
23,599618448451.1443,1780931615713.948,163
23,599618448451.1443,1780931615713.96,257
23,599618448451.1443,1780931615713.9731,322
23,599618448451.1443,1780931615713.9849,304
23,599618448451.1443,1780931615713.998,352
23,599618448451.1443,1780931615714.01,427
23,599618448451.1443,1780931615714.0232,361
23,599618448451.1443,1780931615714.036,275
23,599618448451.1443,1780931615714.0479,304
23,599618448451.1443,1780931615714.061,332
23,599618448451.1443,1780931615714.073,291
23,599618448451.1443,1780931615714.086,204
24,599618449012.706,1780931616253.4932,131
24,599618449012.706,1780931616253.536,118
24,599618449012.706,1780931616253.552,84
24,599618449012.706,1780931616253.5652,34
24,599618449012.706,1780931616253.5789,9
24,599618449012.706,1780931616253.593,-18
24,599618449012.706,1780931616253.6062,-29
24,599618449012.706,1780931616253.619,-34
24,599618449012.706,1780931616253.633,-47
24,599618449012.706,1780931616253.646,-50
24,599618449012.706,1780931616253.659,-29
24,599618449012.706,1780931616253.671,18
24,599618449012.706,1780931616253.685,27
24,599618449012.706,1780931616253.698,20
24,599618449012.706,1780931616253.711,27
24,599618449012.706,1780931616253.723,4
24,599618449012.706,1780931616253.736,0
24,599618449012.706,1780931616253.7488,20
24,599618449012.706,1780931616253.8892,9
24,599618449012.706,1780931616253.949,9
24,599618449012.706,1780931616253.984,29
24,599618449012.706,1780931616254.005,65
24,599618449012.706,1780931616254.02,90
24,599618449012.706,1780931616254.034,34
24,599618449012.706,1780931616254.0469,-22
24,599618449012.706,1780931616254.06,20
24,599618449012.706,1780931616254.073,75
24,599618449012.706,1780931616254.085,65
24,599618449012.706,1780931616254.098,50
24,599618449012.706,1780931616254.11,52
24,599618449012.706,1780931616254.123,15
24,599618449012.706,1780931616254.136,0
24,599618449012.706,1780931616254.148,47
24,599618449012.706,1780931616254.161,61
24,599618449012.706,1780931616254.173,45
24,599618449012.706,1780931616254.186,61
24,599618449012.706,1780931616254.198,100
24,599618449012.706,1780931616254.224,131
24,599618449012.706,1780931616254.2368,102
24,599618449012.706,1780931616254.3818,22
24,599618449012.706,1780931616254.426,9
24,599618449012.706,1780931616254.442,70
24,599618449012.706,1780931616254.458,113
24,599618449012.706,1780931616254.471,113
24,599618449012.706,1780931616254.483,134
24,599618449012.706,1780931616254.496,131
24,599618449012.706,1780931616254.509,116
24,599618449012.706,1780931616254.521,131
24,599618449012.706,1780931616254.534,75
24,599618449012.706,1780931616254.546,34
24,599618449012.706,1780931616254.559,72
24,599618449012.706,1780931616254.571,45
24,599618449012.706,1780931616254.584,6
24,599618449012.706,1780931616254.597,20
24,599618449012.706,1780931616254.6091,52
24,599618449012.706,1780931616254.622,100
24,599618449012.706,1780931616254.6338,106
24,599618449012.706,1780931616254.647,52
24,599618449012.706,1780931616254.66,47
24,599618449012.706,1780931616254.672,127
24,599618449012.706,1780931616254.686,191
24,599618449012.706,1780931616254.7532,202
24,599618449012.706,1780931616254.772,156
24,599618449012.706,1780931616254.7852,125
24,599618449012.706,1780931616254.7979,218
24,599618449012.706,1780931616254.811,348
24,599618449012.706,1780931616254.824,523
24,599618449012.706,1780931616254.837,855
24,599618449012.706,1780931616254.8499,955
24,599618449012.706,1780931616254.862,291
24,599618449012.706,1780931616254.875,-516
24,599618449012.706,1780931616254.963,-461
24,599618449012.706,1780931616254.979,-79
25,599618449574.2372,1780931616884.3638,-97
25,599618449574.2372,1780931616884.418,13
25,599618449574.2372,1780931616884.429,602
25,599618449574.2372,1780931616884.439,1442
25,599618449574.2372,1780931616884.448,2456
25,599618449574.2372,1780931616884.457,3286
25,599618449574.2372,1780931616884.4668,3289
25,599618449574.2372,1780931616884.4758,3097
25,599618449574.2372,1780931616884.485,3664
25,599618449574.2372,1780931616884.4968,4089
25,599618449574.2372,1780931616884.506,3889
25,599618449574.2372,1780931616884.5151,3853
25,599618449574.2372,1780931616884.5251,3616
25,599618449574.2372,1780931616884.534,2638
25,599618449574.2372,1780931616884.543,1771
25,599618449574.2372,1780931616884.552,1498
25,599618449574.2372,1780931616884.562,1321
25,599618449574.2372,1780931616884.571,1119
25,599618449574.2372,1780931616884.5798,1044
25,599618449574.2372,1780931616884.5889,923
25,599618449574.2372,1780931616884.598,732
25,599618449574.2372,1780931616884.6072,657
25,599618449574.2372,1780931616884.6172,625
25,599618449574.2372,1780931616884.626,482
25,599618449574.2372,1780931616884.636,407
25,599618449574.2372,1780931616884.655,586
25,599618449574.2372,1780931616884.664,734
25,599618449574.2372,1780931616884.673,630
25,599618449574.2372,1780931616884.682,607
25,599618449574.2372,1780931616884.692,657
25,599618449574.2372,1780931616884.701,466
25,599618449574.2372,1780931616884.71,325
25,599618449574.2372,1780931616884.719,348
25,599618449574.2372,1780931616884.729,200
25,599618449574.2372,1780931616884.738,106
25,599618449574.2372,1780931616884.748,127
25,599618449574.2372,1780931616884.757,-52
25,599618449574.2372,1780931616884.766,-172
25,599618449574.2372,1780931616884.775,-161
25,599618449574.2372,1780931616884.827,-263
25,599618449574.2372,1780931616884.851,-307
25,599618449574.2372,1780931616884.861,-338
25,599618449574.2372,1780931616884.871,-493
25,599618449574.2372,1780931616884.881,-434
25,599618449574.2372,1780931616884.8901,-368
25,599618449574.2372,1780931616884.9001,-598
25,599618449574.2372,1780931616884.909,-698
25,599618449574.2372,1780931616884.929,-636
25,599618449574.2372,1780931616884.939,-727
25,599618449574.2372,1780931616884.948,-789
25,599618449574.2372,1780931616884.958,-611
25,599618449574.2372,1780931616884.967,-498
25,599618449574.2372,1780931616884.9758,-600
25,599618449574.2372,1780931616884.9858,-611
25,599618449574.2372,1780931616884.9949,-525
25,599618449574.2372,1780931616885.0042,-627
25,599618449574.2372,1780931616885.0132,-723
25,599618449574.2372,1780931616885.022,-602
25,599618449574.2372,1780931616885.031,-568
25,599618449574.2372,1780931616885.041,-723
25,599618449574.2372,1780931616885.05,-748
25,599618449574.2372,1780931616885.059,-532
25,599618449574.2372,1780931616885.0679,-370
25,599618449574.2372,1780931616885.104,-393
25,599618449574.2372,1780931616885.138,-54
25,599618449574.2372,1780931616885.151,702
25,599618449574.2372,1780931616885.161,848
25,599618449574.2372,1780931616885.1719,136
25,599618449574.2372,1780931616885.182,-373
25,599618449574.2372,1780931616885.191,-311
25,599618449574.2372,1780931616885.201,-427
25,599618449574.2372,1780931616885.21,-764
25,599618449574.2372,1780931616885.22,-643
26,599618450135.799,1780931617470.44,-141
26,599618450135.799,1780931617470.488,134
26,599618450135.799,1780931617470.542,-147
26,599618450135.799,1780931617470.563,-466
26,599618450135.799,1780931617470.576,52
26,599618450135.799,1780931617470.5889,718
26,599618450135.799,1780931617470.602,580
26,599618450135.799,1780931617470.615,475
26,599618450135.799,1780931617470.628,978
26,599618450135.799,1780931617470.6409,1223
26,599618450135.799,1780931617470.654,1046
26,599618450135.799,1780931617470.666,907
26,599618450135.799,1780931617470.679,384
26,599618450135.799,1780931617470.691,-311
26,599618450135.799,1780931617470.703,-354
26,599618450135.799,1780931617470.716,-93
26,599618450135.799,1780931617470.729,6
26,599618450135.799,1780931617470.741,263
26,599618450135.799,1780931617470.754,484
26,599618450135.799,1780931617470.766,136
26,599618450135.799,1780931617470.779,-350
26,599618450135.799,1780931617470.791,-489
26,599618450135.799,1780931617470.824,-504
26,599618450135.799,1780931617470.836,-541
26,599618450135.799,1780931617470.849,-511
26,599618450135.799,1780931617470.8608,-338
26,599618450135.799,1780931617470.874,-438
26,599618450135.799,1780931617470.886,-1194
26,599618450135.799,1780931617470.8992,-1794
26,599618450135.799,1780931617470.9119,-1728
26,599618450135.799,1780931617470.925,-1405
26,599618450135.799,1780931617470.947,-984
26,599618450135.799,1780931617470.96,-843
26,599618450135.799,1780931617470.9722,-1205
26,599618450135.799,1780931617470.9858,-1271
26,599618450135.799,1780931617470.999,-580
26,599618450135.799,1780931617471.011,-81
26,599618450135.799,1780931617471.024,-382
26,599618450135.799,1780931617471.036,-586
26,599618450135.799,1780931617471.049,-461
26,599618450135.799,1780931617471.062,-607
26,599618450135.799,1780931617471.0742,-752
26,599618450135.799,1780931617471.087,-502
26,599618450135.799,1780931617471.0989,-204
26,599618450135.799,1780931617471.112,-309
26,599618450135.799,1780931617471.124,-625
26,599618450135.799,1780931617471.136,-711
26,599618450135.799,1780931617471.149,-598
26,599618450135.799,1780931617471.161,-627
26,599618450135.799,1780931617471.174,-739
26,599618450135.799,1780931617471.187,-693
26,599618450135.799,1780931617471.199,-668
26,599618450135.799,1780931617471.224,-716
26,599618450135.799,1780931617471.237,-643
26,599618450135.799,1780931617471.25,-552
26,599618450135.799,1780931617471.263,-566
26,599618450135.799,1780931617471.2761,-493
26,599618450135.799,1780931617471.288,-293
26,599618450135.799,1780931617471.301,-213
26,599618450135.799,1780931617471.314,-232
26,599618450135.799,1780931617471.3262,-227
26,599618450135.799,1780931617471.3389,-252
26,599618450135.799,1780931617471.352,-234
26,599618450135.799,1780931617471.364,-197
26,599618450135.799,1780931617471.376,-252
26,599618450135.799,1780931617471.3892,-336
26,599618450135.799,1780931617471.401,-450
26,599618450135.799,1780931617471.414,-564
26,599618450135.799,1780931617471.426,-545
26,599618450135.799,1780931617471.493,-529
26,599618450135.799,1780931617471.508,-595
26,599618450135.799,1780931617471.524,-570
26,599618450135.799,1780931617471.537,-484
27,599618450697.3606,1780931617918.105,-507
27,599618450697.3606,1780931617918.147,-525
27,599618450697.3606,1780931617918.163,-402
27,599618450697.3606,1780931617918.176,-300
27,599618450697.3606,1780931617918.189,-320
27,599618450697.3606,1780931617918.209,-343
27,599618450697.3606,1780931617918.223,-197
27,599618450697.3606,1780931617918.236,81
27,599618450697.3606,1780931617918.2551,134
27,599618450697.3606,1780931617918.268,-84
27,599618450697.3606,1780931617918.281,-168
27,599618450697.3606,1780931617918.303,-36
27,599618450697.3606,1780931617918.316,15
27,599618450697.3606,1780931617918.334,-152
27,599618450697.3606,1780931617918.3481,-266
27,599618450697.3606,1780931617918.3608,-127
27,599618450697.3606,1780931617918.374,68
27,599618450697.3606,1780931617918.3928,61
27,599618450697.3606,1780931617918.407,-90
27,599618450697.3606,1780931617918.426,-134
27,599618450697.3606,1780931617918.4402,-141
27,599618450697.3606,1780931617918.453,-61
27,599618450697.3606,1780931617918.466,275
27,599618450697.3606,1780931617918.48,338
27,599618450697.3606,1780931617918.494,-9
27,599618450697.3606,1780931617918.507,25
27,599618450697.3606,1780931617918.519,307
27,599618450697.3606,1780931617918.532,279
27,599618450697.3606,1780931617918.545,191
27,599618450697.3606,1780931617918.5579,129
27,599618450697.3606,1780931617918.571,40
27,599618450697.3606,1780931617918.5842,65
27,599618450697.3606,1780931617918.596,168
27,599618450697.3606,1780931617918.609,195
27,599618450697.3606,1780931617918.622,36
27,599618450697.3606,1780931617918.635,-95
27,599618450697.3606,1780931617918.647,45
27,599618450697.3606,1780931617918.66,245
27,599618450697.3606,1780931617918.673,325
27,599618450697.3606,1780931617918.686,420
27,599618450697.3606,1780931617918.699,516
27,599618450697.3606,1780931617918.7378,534
27,599618450697.3606,1780931617918.751,627
27,599618450697.3606,1780931617918.7642,755
27,599618450697.3606,1780931617918.7761,757
27,599618450697.3606,1780931617918.79,852
27,599618450697.3606,1780931617918.813,982
27,599618450697.3606,1780931617918.825,871
27,599618450697.3606,1780931617918.8381,1028
27,599618450697.3606,1780931617918.8508,1792
27,599618450697.3606,1780931617918.863,2297
27,599618450697.3606,1780931617918.876,1787
27,599618450697.3606,1780931617918.8882,736
27,599618450697.3606,1780931617918.901,311
27,599618450697.3606,1780931617918.914,554
27,599618450697.3606,1780931617918.927,457
27,599618450697.3606,1780931617918.9402,241
27,599618450697.3606,1780931617918.953,432
27,599618450697.3606,1780931617918.965,545
27,599618450697.3606,1780931617918.978,377
27,599618450697.3606,1780931617918.9912,322
27,599618450697.3606,1780931617919.003,552
27,599618450697.3606,1780931617919.0159,634
27,599618450697.3606,1780931617919.028,345
27,599618450697.3606,1780931617919.04,195
27,599618450697.3606,1780931617919.055,559
27,599618450697.3606,1780931617919.068,1023
27,599618450697.3606,1780931617919.081,966
27,599618450697.3606,1780931617919.094,582
27,599618450697.3606,1780931617919.107,427
27,599618450697.3606,1780931617919.119,425
27,599618450697.3606,1780931617919.131,348
27,599618450697.3606,1780931617919.145,232
28,599618451258.9172,1780931618459.35,134
28,599618451258.9172,1780931618459.39,102
28,599618451258.9172,1780931618459.404,90
28,599618451258.9172,1780931618459.418,68
28,599618451258.9172,1780931618459.431,81
28,599618451258.9172,1780931618459.445,90
28,599618451258.9172,1780931618459.457,88
28,599618451258.9172,1780931618459.47,93
28,599618451258.9172,1780931618459.483,43
28,599618451258.9172,1780931618459.496,-9
28,599618451258.9172,1780931618459.508,40
28,599618451258.9172,1780931618459.522,109
28,599618451258.9172,1780931618459.534,161
28,599618451258.9172,1780931618459.547,209
28,599618451258.9172,1780931618459.5598,200
28,599618451258.9172,1780931618459.573,166
28,599618451258.9172,1780931618459.5872,31
28,599618451258.9172,1780931618459.5999,-170
28,599618451258.9172,1780931618459.613,-200
28,599618451258.9172,1780931618459.625,-154
28,599618451258.9172,1780931618459.6382,-222
28,599618451258.9172,1780931618459.6519,-288
28,599618451258.9172,1780931618459.664,-282
28,599618451258.9172,1780931618459.677,-309
28,599618451258.9172,1780931618459.6902,-373
28,599618451258.9172,1780931618459.702,-398
28,599618451258.9172,1780931618459.7139,-413
28,599618451258.9172,1780931618459.7449,-429
28,599618451258.9172,1780931618459.758,-427
28,599618451258.9172,1780931618459.77,-459
28,599618451258.9172,1780931618459.783,-384
28,599618451258.9172,1780931618459.796,-166
28,599618451258.9172,1780931618459.808,-147
28,599618451258.9172,1780931618459.83,-300
28,599618451258.9172,1780931618459.842,-284
28,599618451258.9172,1780931618459.855,-245
28,599618451258.9172,1780931618459.868,-284
28,599618451258.9172,1780931618459.881,-247
28,599618451258.9172,1780931618459.893,-195
28,599618451258.9172,1780931618459.906,-179
28,599618451258.9172,1780931618459.919,-104
28,599618451258.9172,1780931618459.931,-50
28,599618451258.9172,1780931618459.944,-141
28,599618451258.9172,1780931618459.9558,-252
28,599618451258.9172,1780931618459.969,-275
28,599618451258.9172,1780931618459.982,-279
28,599618451258.9172,1780931618459.9941,-282
28,599618451258.9172,1780931618460.0142,-179
28,599618451258.9172,1780931618460.0261,20
28,599618451258.9172,1780931618460.0388,195
28,599618451258.9172,1780931618460.052,307
28,599618451258.9172,1780931618460.064,388
28,599618451258.9172,1780931618460.0762,543
28,599618451258.9172,1780931618460.0889,630
28,599618451258.9172,1780931618460.1008,461
28,599618451258.9172,1780931618460.114,307
28,599618451258.9172,1780931618460.1272,320
28,599618451258.9172,1780931618460.14,425
28,599618451258.9172,1780931618460.1519,570
28,599618451258.9172,1780931618460.165,441
28,599618451258.9172,1780931618460.178,40
28,599618451258.9172,1780931618460.19,-136
28,599618451258.9172,1780931618460.202,-129
28,599618451258.9172,1780931618460.216,-234
28,599618451258.9172,1780931618460.228,-341
28,599618451258.9172,1780931618460.24,-318
28,599618451258.9172,1780931618460.252,-200
28,599618451258.9172,1780931618460.265,-90
28,599618451258.9172,1780931618460.278,-141
28,599618451258.9172,1780931618460.291,-282
28,599618451258.9172,1780931618460.303,-332
28,599618451258.9172,1780931618460.316,-320
28,599618451258.9172,1780931618460.331,-275
29,599618451820.4536,1780931618998.755,-90
29,599618451820.4536,1780931619000.512,195
29,599618451820.4536,1780931619000.539,293
29,599618451820.4536,1780931619000.5542,-97
29,599618451820.4536,1780931619000.571,-734
29,599618451820.4536,1780931619000.585,-948
29,599618451820.4536,1780931619000.598,-655
29,599618451820.4536,1780931619000.61,-404
29,599618451820.4536,1780931619000.623,-377
29,599618451820.4536,1780931619000.636,-382
29,599618451820.4536,1780931619000.649,-413
29,599618451820.4536,1780931619000.661,-507
29,599618451820.4536,1780931619000.674,-532
29,599618451820.4536,1780931619000.6868,-466
29,599618451820.4536,1780931619000.699,-429
29,599618451820.4536,1780931619000.712,-423
29,599618451820.4536,1780931619000.724,-391
29,599618451820.4536,1780931619000.737,-375
29,599618451820.4536,1780931619000.749,-338
29,599618451820.4536,1780931619000.762,-234
29,599618451820.4536,1780931619000.774,-163
29,599618451820.4536,1780931619000.787,-113
29,599618451820.4536,1780931619000.7998,-25
29,599618451820.4536,1780931619000.812,-61
29,599618451820.4536,1780931619000.825,-195
29,599618451820.4536,1780931619000.8372,-195
29,599618451820.4536,1780931619000.8499,-93
29,599618451820.4536,1780931619000.8618,120
29,599618451820.4536,1780931619000.875,420
29,599618451820.4536,1780931619000.887,741
29,599618451820.4536,1780931619000.9001,1107
29,599618451820.4536,1780931619000.9119,1378
29,599618451820.4536,1780931619000.925,1621
29,599618451820.4536,1780931619000.9429,1699
29,599618451820.4536,1780931619000.987,1205
29,599618451820.4536,1780931619001.0059,648
29,599618451820.4536,1780931619001.019,577
29,599618451820.4536,1780931619001.031,550
29,599618451820.4536,1780931619001.044,361
29,599618451820.4536,1780931619001.056,266
29,599618451820.4536,1780931619001.069,325
29,599618451820.4536,1780931619001.082,520
29,599618451820.4536,1780931619001.185,425
29,599618451820.4536,1780931619001.209,-47
29,599618451820.4536,1780931619001.2231,-252
29,599618451820.4536,1780931619001.2368,-232
29,599618451820.4536,1780931619001.25,-327
29,599618451820.4536,1780931619001.263,-241
29,599618451820.4536,1780931619001.2761,254
29,599618451820.4536,1780931619001.411,789
29,599618451820.4536,1780931619001.4292,962
29,599618451820.4536,1780931619001.442,1025
29,599618451820.4536,1780931619001.455,1269
29,599618451820.4536,1780931619001.466,1642
29,599618451820.4536,1780931619001.507,1703
29,599618451820.4536,1780931619001.562,1119
29,599618451820.4536,1780931619001.573,541
29,599618451820.4536,1780931619001.583,357
29,599618451820.4536,1780931619001.592,266
29,599618451820.4536,1780931619001.601,411
29,599618451820.4536,1780931619001.6128,721
29,599618451820.4536,1780931619001.6711,570
29,599618451820.4536,1780931619001.7131,250
29,599618451820.4536,1780931619001.827,591
29,599618451820.4536,1780931619001.845,1241
29,599618451820.4536,1780931619001.855,1419
29,599618451820.4536,1780931619001.865,1419
29,599618451820.4536,1780931619001.893,1862
29,599618451820.4536,1780931619001.904,2631
29,599618451820.4536,1780931619001.913,3159
29,599618451820.4536,1780931619001.923,3027
29,599618451820.4536,1780931619001.932,2288
29,599618451820.4536,1780931619001.941,1394
30,599618452382.0153,1780931619627.978,852
30,599618452382.0153,1780931619628.0178,684
30,599618452382.0153,1780931619628.031,413
30,599618452382.0153,1780931619628.0388,-15
30,599618452382.0153,1780931619628.0469,-252
30,599618452382.0153,1780931619628.0552,-370
30,599618452382.0153,1780931619628.062,-504
30,599618452382.0153,1780931619628.0688,-605
30,599618452382.0153,1780931619628.0762,-659
30,599618452382.0153,1780931619628.083,-584
30,599618452382.0153,1780931619628.115,-543
30,599618452382.0153,1780931619628.125,-736
30,599618452382.0153,1780931619628.135,-816
30,599618452382.0153,1780931619628.142,-673
30,599618452382.0153,1780931619628.161,-709
30,599618452382.0153,1780931619628.593,-877
30,599618452382.0153,1780931619628.615,-814
30,599618452382.0153,1780931619628.622,-746
30,599618452382.0153,1780931619628.63,-903
30,599618452382.0153,1780931619628.637,-928
30,599618452382.0153,1780931619628.645,-752
30,599618452382.0153,1780931619628.652,-591
30,599618452382.0153,1780931619628.659,-409
30,599618452382.0153,1780931619628.6672,-491
30,599618452382.0153,1780931619629.143,-1096
30,599618452382.0153,1780931619629.1511,-1521
30,599618452382.0153,1780931619629.177,-1182
30,599618452382.0153,1780931619629.218,-709
30,599618452382.0153,1780931619629.284,-630
30,599618452382.0153,1780931619629.293,-525
30,599618452382.0153,1780931619629.301,-297
30,599618452382.0153,1780931619629.308,-350
30,599618452382.0153,1780931619629.3162,-536
30,599618452382.0153,1780931619629.323,-605
30,599618452382.0153,1780931619629.352,-671
30,599618452382.0153,1780931619629.545,-693
30,599618452382.0153,1780931619629.554,-457
30,599618452382.0153,1780931619629.561,-131
30,599618452382.0153,1780931619629.567,-109
30,599618452382.0153,1780931619629.572,-334
30,599618452382.0153,1780931619629.579,-461
30,599618452382.0153,1780931619629.585,-411
30,599618452382.0153,1780931619629.591,-268
30,599618452382.0153,1780931619629.6,-86
30,599618452382.0153,1780931619629.607,-143
30,599618452382.0153,1780931619629.69,-438
30,599618452382.0153,1780931619629.7988,-489
30,599618452382.0153,1780931619629.8088,-361
30,599618452382.0153,1780931619629.835,-386
30,599618452382.0153,1780931619629.862,-450
30,599618452382.0153,1780931619629.8699,-434
30,599618452382.0153,1780931619629.876,-398
30,599618452382.0153,1780931619629.882,-379
30,599618452382.0153,1780931619629.889,-348
30,599618452382.0153,1780931619629.895,-213
30,599618452382.0153,1780931619629.901,29
30,599618452382.0153,1780931619629.9082,61
30,599618452382.0153,1780931619629.914,-232
30,599618452382.0153,1780931619629.92,-413
30,599618452382.0153,1780931619629.926,-395
30,599618452382.0153,1780931619629.932,-495
30,599618452382.0153,1780931619629.938,-650
30,599618452382.0153,1780931619629.944,-693
30,599618452382.0153,1780931619629.95,-696
30,599618452382.0153,1780931619629.956,-652
30,599618452382.0153,1780931619629.962,-545
30,599618452382.0153,1780931619629.968,-534
30,599618452382.0153,1780931619629.9739,-580
30,599618452382.0153,1780931619629.98,-518
30,599618452382.0153,1780931619629.986,-436
30,599618452382.0153,1780931619629.992,-438
30,599618452382.0153,1780931619629.998,-404
30,599618452382.0153,1780931619630.004,-286
31,599618452943.5465,1780931620168.697,-197
31,599618452943.5465,1780931620168.719,-193
31,599618452943.5465,1780931620168.728,-232
31,599618452943.5465,1780931620168.735,-206
31,599618452943.5465,1780931620168.743,-125
31,599618452943.5465,1780931620168.751,-116
31,599618452943.5465,1780931620168.759,-159
31,599618452943.5465,1780931620168.766,-186
31,599618452943.5465,1780931620168.774,-229
31,599618452943.5465,1780931620168.781,-238
31,599618452943.5465,1780931620168.794,-191
31,599618452943.5465,1780931620168.801,-181
31,599618452943.5465,1780931620168.8088,-213
31,599618452943.5465,1780931620168.8162,-195
31,599618452943.5465,1780931620168.824,-154
31,599618452943.5465,1780931620168.831,-163
31,599618452943.5465,1780931620168.8381,-147
31,599618452943.5465,1780931620168.846,-65
31,599618452943.5465,1780931620168.853,-13
31,599618452943.5465,1780931620168.8608,34
31,599618452943.5465,1780931620168.8682,195
31,599618452943.5465,1780931620168.876,407
31,599618452943.5465,1780931620168.883,489
31,599618452943.5465,1780931620168.89,370
31,599618452943.5465,1780931620168.8982,177
31,599618452943.5465,1780931620168.905,113
31,599618452943.5465,1780931620168.9119,113
31,599618452943.5465,1780931620168.9192,-15
31,599618452943.5465,1780931620168.927,-191
31,599618452943.5465,1780931620168.934,-216
31,599618452943.5465,1780931620168.942,-111
31,599618452943.5465,1780931620168.949,-122
31,599618452943.5465,1780931620168.956,-268
31,599618452943.5465,1780931620168.963,-313
31,599618452943.5465,1780931620168.971,-286
31,599618452943.5465,1780931620168.978,-300
31,599618452943.5465,1780931620168.9849,-313
31,599618452943.5465,1780931620168.992,-232
31,599618452943.5465,1780931620169.0,45
31,599618452943.5465,1780931620169.007,398
31,599618452943.5465,1780931620169.015,479
31,599618452943.5465,1780931620169.022,86
31,599618452943.5465,1780931620169.03,-450
31,599618452943.5465,1780931620169.035,-545
31,599618452943.5465,1780931620169.037,116
31,599618452943.5465,1780931620169.04,1264
31,599618452943.5465,1780931620169.042,2038
31,599618452943.5465,1780931620169.045,2090
31,599618452943.5465,1780931620169.047,2078
31,599618452943.5465,1780931620169.05,2324
31,599618452943.5465,1780931620169.052,2572
31,599618452943.5465,1780931620169.055,2765
31,599618452943.5465,1780931620169.057,2886
31,599618452943.5465,1780931620169.06,2929
31,599618452943.5465,1780931620169.063,3025
31,599618452943.5465,1780931620169.065,3104
31,599618452943.5465,1780931620169.068,3038
31,599618452943.5465,1780931620169.07,2972
31,599618452943.5465,1780931620169.073,2968
31,599618452943.5465,1780931620169.075,2895
31,599618452943.5465,1780931620169.0781,2868
31,599618452943.5465,1780931620169.081,2938
31,599618452943.5465,1780931620169.083,2774
31,599618452943.5465,1780931620169.086,2176
31,599618452943.5465,1780931620169.088,1537
31,599618452943.5465,1780931620169.091,1257
31,599618452943.5465,1780931620169.0928,1125
31,599618452943.5465,1780931620169.096,916
31,599618452943.5465,1780931620169.105,784
31,599618452943.5465,1780931620169.108,721
31,599618452943.5465,1780931620169.111,561
31,599618452943.5465,1780931620169.114,393
31,599618452943.5465,1780931620169.117,309
32,599618453505.0929,1780931620708.546,229
32,599618453505.0929,1780931620708.566,188
32,599618453505.0929,1780931620708.575,197
32,599618453505.0929,1780931620708.583,209
32,599618453505.0929,1780931620708.591,277
32,599618453505.0929,1780931620708.598,300
32,599618453505.0929,1780931620708.605,163
32,599618453505.0929,1780931620708.613,31
32,599618453505.0929,1780931620708.621,-34
32,599618453505.0929,1780931620708.628,-63
32,599618453505.0929,1780931620708.636,-40
32,599618453505.0929,1780931620708.643,-61
32,599618453505.0929,1780931620708.6511,-97
32,599618453505.0929,1780931620708.659,-90
32,599618453505.0929,1780931620708.666,-145
32,599618453505.0929,1780931620708.673,-206
32,599618453505.0929,1780931620708.6812,-204
32,599618453505.0929,1780931620708.689,-379
32,599618453505.0929,1780931620708.6958,-575
32,599618453505.0929,1780931620708.704,-361
32,599618453505.0929,1780931620708.711,-81
32,599618453505.0929,1780931620708.719,-202
32,599618453505.0929,1780931620708.7258,-402
32,599618453505.0929,1780931620708.7332,-320
32,599618453505.0929,1780931620708.741,-209
32,599618453505.0929,1780931620708.748,-266
32,599618453505.0929,1780931620708.7551,-357
32,599618453505.0929,1780931620708.762,-293
32,599618453505.0929,1780931620708.77,-100
32,599618453505.0929,1780931620708.7769,-141
32,599618453505.0929,1780931620708.7842,-363
32,599618453505.0929,1780931620708.791,-359
32,599618453505.0929,1780931620708.7988,-232
32,599618453505.0929,1780931620708.8062,-250
32,599618453505.0929,1780931620708.813,-297
32,599618453505.0929,1780931620708.821,-218
32,599618453505.0929,1780931620708.828,-125
32,599618453505.0929,1780931620708.835,-191
32,599618453505.0929,1780931620708.842,-322
32,599618453505.0929,1780931620708.8489,-241
32,599618453505.0929,1780931620708.8562,68
32,599618453505.0929,1780931620708.863,261
32,599618453505.0929,1780931620708.8699,213
32,599618453505.0929,1780931620708.878,291
32,599618453505.0929,1780931620708.885,500
32,599618453505.0929,1780931620708.892,648
32,599618453505.0929,1780931620708.899,814
32,599618453505.0929,1780931620708.906,873
32,599618453505.0929,1780931620708.913,727
32,599618453505.0929,1780931620708.92,452
32,599618453505.0929,1780931620708.9282,143
32,599618453505.0929,1780931620708.935,22
32,599618453505.0929,1780931620708.942,45
32,599618453505.0929,1780931620708.949,102
32,599618453505.0929,1780931620708.956,329
32,599618453505.0929,1780931620708.963,725
32,599618453505.0929,1780931620708.971,1155
32,599618453505.0929,1780931620708.978,1396
32,599618453505.0929,1780931620708.985,982
32,599618453505.0929,1780931620709.062,104
32,599618453505.0929,1780931620709.072,-229
32,599618453505.0929,1780931620709.08,38
32,599618453505.0929,1780931620709.087,129
32,599618453505.0929,1780931620709.094,59
32,599618453505.0929,1780931620709.128,147
32,599618453505.0929,1780931620709.1392,204
32,599618453505.0929,1780931620709.146,156
32,599618453505.0929,1780931620709.1538,147
32,599618453505.0929,1780931620709.1611,77
32,599618453505.0929,1780931620709.169,-75
32,599618453505.0929,1780931620709.176,-113
32,599618453505.0929,1780931620709.1829,4
32,599618453505.0929,1780931620709.1912,141
33,599618454066.6394,1780931621293.628,184
33,599618454066.6394,1780931621293.669,220
33,599618454066.6394,1780931621293.684,350
33,599618454066.6394,1780931621293.697,498
33,599618454066.6394,1780931621293.71,600
33,599618454066.6394,1780931621293.722,639
33,599618454066.6394,1780931621293.736,525
33,599618454066.6394,1780931621293.749,368
33,599618454066.6394,1780931621293.762,407
33,599618454066.6394,1780931621293.7778,507
33,599618454066.6394,1780931621293.791,466
33,599618454066.6394,1780931621293.804,486
33,599618454066.6394,1780931621293.8289,718
33,599618454066.6394,1780931621294.042,950
33,599618454066.6394,1780931621294.058,996
33,599618454066.6394,1780931621294.071,973
33,599618454066.6394,1780931621294.084,1016
33,599618454066.6394,1780931621294.097,1021
33,599618454066.6394,1780931621294.11,973
33,599618454066.6394,1780931621294.123,964
33,599618454066.6394,1780931621294.135,846
33,599618454066.6394,1780931621294.148,623
33,599618454066.6394,1780931621294.16,484
33,599618454066.6394,1780931621294.173,443
33,599618454066.6394,1780931621294.186,407
33,599618454066.6394,1780931621294.199,218
33,599618454066.6394,1780931621294.2122,-6
33,599618454066.6394,1780931621294.225,-22
33,599618454066.6394,1780931621294.238,18
33,599618454066.6394,1780931621294.251,-20
33,599618454066.6394,1780931621294.263,-20
33,599618454066.6394,1780931621294.276,36
33,599618454066.6394,1780931621294.289,25
33,599618454066.6394,1780931621294.301,-27
33,599618454066.6394,1780931621294.314,-20
33,599618454066.6394,1780931621294.3262,-2
33,599618454066.6394,1780931621294.3389,77
33,599618454066.6394,1780931621294.353,243
33,599618454066.6394,1780931621294.365,304
33,599618454066.6394,1780931621294.378,175
33,599618454066.6394,1780931621294.3909,-20
33,599618454066.6394,1780931621294.404,-52
33,599618454066.6394,1780931621294.416,36
33,599618454066.6394,1780931621294.436,0
33,599618454066.6394,1780931621294.45,-122
33,599618454066.6394,1780931621294.463,-181
33,599618454066.6394,1780931621294.476,-175
33,599618454066.6394,1780931621294.61,-170
33,599618454066.6394,1780931621294.635,-213
33,599618454066.6394,1780931621296.625,-202
33,599618454066.6394,1780931621296.643,-65
33,599618454066.6394,1780931621296.653,116
33,599618454066.6394,1780931621296.663,179
33,599618454066.6394,1780931621296.673,36
33,599618454066.6394,1780931621296.682,-145
33,599618454066.6394,1780931621296.692,-166
33,599618454066.6394,1780931621296.702,-84
33,599618454066.6394,1780931621296.711,-29
33,599618454066.6394,1780931621296.72,52
33,599618454066.6394,1780931621296.729,243
33,599618454066.6394,1780931621296.7378,441
33,599618454066.6394,1780931621296.7478,441
33,599618454066.6394,1780931621296.757,113
33,599618454066.6394,1780931621296.766,-220
33,599618454066.6394,1780931621296.7761,-232
33,599618454066.6394,1780931621296.7852,-206
33,599618454066.6394,1780931621296.794,-272
33,599618454066.6394,1780931621296.804,-254
33,599618454066.6394,1780931621296.813,-309
33,599618454066.6394,1780931621296.822,-450
33,599618454066.6394,1780931621296.8308,-373
33,599618454066.6394,1780931621296.8398,-36
33,599618454066.6394,1780931621296.8499,286
34,599618454628.196,1780931621834.2332,104
34,599618454628.196,1780931621834.312,-645
34,599618454628.196,1780931621834.341,-1039
34,599618454628.196,1780931621834.356,-648
34,599618454628.196,1780931621834.373,-304
34,599618454628.196,1780931621834.387,-354
34,599618454628.196,1780931621834.401,-327
34,599618454628.196,1780931621834.414,-218
34,599618454628.196,1780931621834.427,-266
34,599618454628.196,1780931621834.44,-382
34,599618454628.196,1780931621834.4531,-452
34,599618454628.196,1780931621834.465,-489
34,599618454628.196,1780931621834.479,-450
34,599618454628.196,1780931621834.492,-284
34,599618454628.196,1780931621834.504,-59
34,599618454628.196,1780931621834.518,181
34,599618454628.196,1780931621834.531,416
34,599618454628.196,1780931621834.545,536
34,599618454628.196,1780931621834.558,473
34,599618454628.196,1780931621834.5708,297
34,599618454628.196,1780931621834.584,143
34,599618454628.196,1780931621834.5972,13
34,599618454628.196,1780931621834.6099,2
34,599618454628.196,1780931621834.623,168
34,599618454628.196,1780931621834.636,270
34,599618454628.196,1780931621834.6492,238
34,599618454628.196,1780931621834.6619,225
34,599618454628.196,1780931621834.675,259
34,599618454628.196,1780931621834.688,341
34,599618454628.196,1780931621834.7002,420
34,599618454628.196,1780931621834.713,468
34,599618454628.196,1780931621834.726,464
34,599618454628.196,1780931621834.739,329
34,599618454628.196,1780931621834.7522,236
34,599618454628.196,1780931621834.764,307
34,599618454628.196,1780931621834.777,222
34,599618454628.196,1780931621834.79,-45
34,599618454628.196,1780931621834.8032,-193
34,599618454628.196,1780931621834.816,-200
34,599618454628.196,1780931621834.83,-161
34,599618454628.196,1780931621834.842,-122
34,599618454628.196,1780931621834.856,-143
34,599618454628.196,1780931621834.868,-177
34,599618454628.196,1780931621834.881,-166
34,599618454628.196,1780931621834.894,-129
34,599618454628.196,1780931621834.907,-52
34,599618454628.196,1780931621834.919,36
34,599618454628.196,1780931621834.9321,11
34,599618454628.196,1780931621834.944,-20
34,599618454628.196,1780931621834.9568,77
34,599618454628.196,1780931621834.97,102
34,599618454628.196,1780931621834.9832,45
34,599618454628.196,1780931621834.995,147
34,599618454628.196,1780931621835.009,177
34,599618454628.196,1780931621835.021,184
34,599618454628.196,1780931621835.034,625
34,599618454628.196,1780931621835.047,887
34,599618454628.196,1780931621835.143,425
34,599618454628.196,1780931621835.2239,34
34,599618454628.196,1780931621835.246,34
34,599618454628.196,1780931621835.318,-59
34,599618454628.196,1780931621835.34,-170
34,599618454628.196,1780931621835.3528,-127
34,599618454628.196,1780931621835.366,-129
34,599618454628.196,1780931621835.379,-213
34,599618454628.196,1780931621835.392,-257
34,599618454628.196,1780931621835.405,-282
34,599618454628.196,1780931621835.417,-309
34,599618454628.196,1780931621835.43,-341
34,599618454628.196,1780931621835.443,-416
34,599618454628.196,1780931621835.4548,-466
34,599618454628.196,1780931621835.551,-443
34,599618454628.196,1780931621835.574,-416
35,599618455189.7323,1780931622373.2542,-425
35,599618455189.7323,1780931622373.2852,-409
35,599618455189.7323,1780931622373.293,-338
35,599618455189.7323,1780931622373.301,-252
35,599618455189.7323,1780931622373.307,-250
35,599618455189.7323,1780931622373.314,-350
35,599618455189.7323,1780931622373.327,-407
35,599618455189.7323,1780931622373.333,-391
35,599618455189.7323,1780931622373.3389,-407
35,599618455189.7323,1780931622373.3462,-429
35,599618455189.7323,1780931622373.352,-311
35,599618455189.7323,1780931622373.358,36
35,599618455189.7323,1780931622373.365,320
35,599618455189.7323,1780931622373.378,20
35,599618455189.7323,1780931622373.384,-741
35,599618455189.7323,1780931622373.39,-1041
35,599618455189.7323,1780931622373.396,-659
35,599618455189.7323,1780931622373.402,-379
35,599618455189.7323,1780931622373.409,-432
35,599618455189.7323,1780931622373.415,-427
35,599618455189.7323,1780931622373.421,-329
35,599618455189.7323,1780931622373.427,-320
35,599618455189.7323,1780931622373.433,-377
35,599618455189.7323,1780931622373.439,-375
35,599618455189.7323,1780931622373.446,-302
35,599618455189.7323,1780931622373.451,-184
35,599618455189.7323,1780931622373.458,-68
35,599618455189.7323,1780931622373.464,13
35,599618455189.7323,1780931622373.47,61
35,599618455189.7323,1780931622373.475,77
35,599618455189.7323,1780931622373.499,106
35,599618455189.7323,1780931622373.506,172
35,599618455189.7323,1780931622373.512,238
35,599618455189.7323,1780931622373.519,300
35,599618455189.7323,1780931622373.525,350
35,599618455189.7323,1780931622373.531,343
35,599618455189.7323,1780931622373.537,293
35,599618455189.7323,1780931622373.543,220
35,599618455189.7323,1780931622373.55,159
35,599618455189.7323,1780931622373.5571,154
35,599618455189.7323,1780931622373.563,172
35,599618455189.7323,1780931622373.569,170
35,599618455189.7323,1780931622373.575,127
35,599618455189.7323,1780931622373.581,125
35,599618455189.7323,1780931622373.586,275
35,599618455189.7323,1780931622373.593,443
35,599618455189.7323,1780931622373.5981,436
35,599618455189.7323,1780931622373.605,286
35,599618455189.7323,1780931622373.611,168
35,599618455189.7323,1780931622373.618,97
35,599618455189.7323,1780931622373.624,-13
35,599618455189.7323,1780931622373.6301,-95
35,599618455189.7323,1780931622373.636,-97
35,599618455189.7323,1780931622373.642,-90
35,599618455189.7323,1780931622373.648,-56
35,599618455189.7323,1780931622373.6538,36
35,599618455189.7323,1780931622373.6602,70
35,599618455189.7323,1780931622373.666,31
35,599618455189.7323,1780931622373.672,22
35,599618455189.7323,1780931622373.678,86
35,599618455189.7323,1780931622373.6838,204
35,599618455189.7323,1780931622373.69,282
35,599618455189.7323,1780931622373.696,247
35,599618455189.7323,1780931622373.7021,259
35,599618455189.7323,1780931622373.708,466
35,599618455189.7323,1780931622373.7139,509
35,599618455189.7323,1780931622373.72,154
35,599618455189.7323,1780931622373.7258,-43
35,599618455189.7323,1780931622373.7322,72
35,599618455189.7323,1780931622373.737,75
35,599618455189.7323,1780931622373.7432,11
35,599618455189.7323,1780931622373.749,79
35,599618455189.7323,1780931622373.755,138
36,599618455751.2941,1780931623004.944,141
36,599618455751.2941,1780931623004.989,145
36,599618455751.2941,1780931623005.003,150
36,599618455751.2941,1780931623005.017,193
36,599618455751.2941,1780931623005.032,252
36,599618455751.2941,1780931623005.047,229
36,599618455751.2941,1780931623005.06,181
36,599618455751.2941,1780931623005.073,266
36,599618455751.2941,1780931623005.086,407
36,599618455751.2941,1780931623005.099,407
36,599618455751.2941,1780931623005.1118,363
36,599618455751.2941,1780931623005.125,634
36,599618455751.2941,1780931623005.1392,1289
36,599618455751.2941,1780931623005.152,1780
36,599618455751.2941,1780931623005.1912,1758
36,599618455751.2941,1780931623005.2048,1708
36,599618455751.2941,1780931623005.218,1878
36,599618455751.2941,1780931623005.231,1981
36,599618455751.2941,1780931623005.244,1974
36,599618455751.2941,1780931623005.2568,1956
36,599618455751.2941,1780931623005.271,1933
36,599618455751.2941,1780931623005.2842,1867
36,599618455751.2941,1780931623005.2969,1792
36,599618455751.2941,1780931623005.309,1815
36,599618455751.2941,1780931623005.323,1749
36,599618455751.2941,1780931623005.3352,1207
36,599618455751.2941,1780931623005.348,564
36,599618455751.2941,1780931623005.3599,527
36,599618455751.2941,1780931623005.374,791
36,599618455751.2941,1780931623005.387,721
36,599618455751.2941,1780931623005.4,539
36,599618455751.2941,1780931623005.413,534
36,599618455751.2941,1780931623005.426,477
36,599618455751.2941,1780931623005.438,311
36,599618455751.2941,1780931623005.451,222
36,599618455751.2941,1780931623005.464,191
36,599618455751.2941,1780931623005.476,152
36,599618455751.2941,1780931623005.488,143
36,599618455751.2941,1780931623005.501,136
36,599618455751.2941,1780931623005.513,72
36,599618455751.2941,1780931623005.5251,11
36,599618455751.2941,1780931623005.538,6
36,599618455751.2941,1780931623005.5498,11
36,599618455751.2941,1780931623005.562,6
36,599618455751.2941,1780931623005.574,27
36,599618455751.2941,1780931623005.5872,104
36,599618455751.2941,1780931623005.6,163
36,599618455751.2941,1780931623005.6118,138
36,599618455751.2941,1780931623005.624,120
36,599618455751.2941,1780931623005.637,181
36,599618455751.2941,1780931623005.6492,200
36,599618455751.2941,1780931623005.6611,111
36,599618455751.2941,1780931623005.6738,90
36,599618455751.2941,1780931623005.686,152
36,599618455751.2941,1780931623005.699,138
36,599618455751.2941,1780931623005.712,95
36,599618455751.2941,1780931623005.7239,111
36,599618455751.2941,1780931623005.737,100
36,599618455751.2941,1780931623005.749,47
36,599618455751.2941,1780931623005.761,27
36,599618455751.2941,1780931623005.774,22
36,599618455751.2941,1780931623005.788,-25
36,599618455751.2941,1780931623005.8,-109
36,599618455751.2941,1780931623005.813,-172
36,599618455751.2941,1780931623005.825,-181
36,599618455751.2941,1780931623005.838,-161
36,599618455751.2941,1780931623005.85,-125
36,599618455751.2941,1780931623005.862,-72
36,599618455751.2941,1780931623005.875,-45
36,599618455751.2941,1780931623005.888,-59
36,599618455751.2941,1780931623005.9,-77
36,599618455751.2941,1780931623005.913,-95
36,599618455751.2941,1780931623005.925,-97
37,599618456312.8354,1780931623589.531,-70
37,599618456312.8354,1780931623589.577,-50
37,599618456312.8354,1780931623589.594,-65
37,599618456312.8354,1780931623589.608,-75
37,599618456312.8354,1780931623589.621,-38
37,599618456312.8354,1780931623589.633,18
37,599618456312.8354,1780931623589.646,36
37,599618456312.8354,1780931623589.658,6
37,599618456312.8354,1780931623589.671,-20
37,599618456312.8354,1780931623589.683,-11
37,599618456312.8354,1780931623589.696,6
37,599618456312.8354,1780931623589.729,31
37,599618456312.8354,1780931623589.742,38
37,599618456312.8354,1780931623589.7551,4
37,599618456312.8354,1780931623589.767,-13
37,599618456312.8354,1780931623589.7788,25
37,599618456312.8354,1780931623589.792,52
37,599618456312.8354,1780931623589.805,15
37,599618456312.8354,1780931623589.8171,-40
37,599618456312.8354,1780931623589.8289,-72
37,599618456312.8354,1780931623589.842,-77
37,599618456312.8354,1780931623589.855,-61
37,599618456312.8354,1780931623589.8672,-31
37,599618456312.8354,1780931623589.88,-9
37,599618456312.8354,1780931623589.8918,15
37,599618456312.8354,1780931623589.904,27
37,599618456312.8354,1780931623589.916,31
37,599618456312.8354,1780931623589.9292,56
37,599618456312.8354,1780931623589.941,97
37,599618456312.8354,1780931623589.953,129
37,599618456312.8354,1780931623589.966,163
37,599618456312.8354,1780931623589.979,227
37,599618456312.8354,1780931623589.9912,368
37,599618456312.8354,1780931623590.004,577
37,599618456312.8354,1780931623590.0159,525
37,599618456312.8354,1780931623590.028,6
37,599618456312.8354,1780931623590.04,-411
37,599618456312.8354,1780931623590.053,-279
37,599618456312.8354,1780931623590.065,-11
37,599618456312.8354,1780931623590.0781,77
37,599618456312.8354,1780931623590.091,125
37,599618456312.8354,1780931623590.103,175
37,599618456312.8354,1780931623590.115,143
37,599618456312.8354,1780931623590.128,122
37,599618456312.8354,1780931623590.1401,220
37,599618456312.8354,1780931623590.152,232
37,599618456312.8354,1780931623590.1648,106
37,599618456312.8354,1780931623590.177,100
37,599618456312.8354,1780931623590.189,170
37,599618456312.8354,1780931623590.201,163
37,599618456312.8354,1780931623590.214,179
37,599618456312.8354,1780931623590.2258,216
37,599618456312.8354,1780931623590.238,147
37,599618456312.8354,1780931623590.251,86
37,599618456312.8354,1780931623590.263,116
37,599618456312.8354,1780931623590.2761,138
37,599618456312.8354,1780931623590.2878,161
37,599618456312.8354,1780931623590.301,175
37,599618456312.8354,1780931623590.313,111
37,599618456312.8354,1780931623590.3262,47
37,599618456312.8354,1780931623590.338,81
37,599618456312.8354,1780931623590.351,152
37,599618456312.8354,1780931623590.363,161
37,599618456312.8354,1780931623590.375,172
37,599618456312.8354,1780931623590.388,232
37,599618456312.8354,1780931623590.4019,272
37,599618456312.8354,1780931623590.414,300
37,599618456312.8354,1780931623590.427,343
37,599618456312.8354,1780931623590.439,338
37,599618456312.8354,1780931623590.452,304
37,599618456312.8354,1780931623590.464,302
37,599618456312.8354,1780931623590.477,284
37,599618456312.8354,1780931623590.49,241
38,599618456874.387,1780931624084.0051,216
38,599618456874.387,1780931624084.05,204
38,599618456874.387,1780931624084.065,184
38,599618456874.387,1780931624084.079,156
38,599618456874.387,1780931624084.0918,122
38,599618456874.387,1780931624084.105,104
38,599618456874.387,1780931624084.1191,88
38,599618456874.387,1780931624084.1318,15
38,599618456874.387,1780931624084.146,-40
38,599618456874.387,1780931624084.159,-22
38,599618456874.387,1780931624084.172,25
38,599618456874.387,1780931624084.2048,100
38,599618456874.387,1780931624084.218,113
38,599618456874.387,1780931624084.2322,56
38,599618456874.387,1780931624084.2449,109
38,599618456874.387,1780931624084.2568,200
38,599618456874.387,1780931624084.27,177
38,599618456874.387,1780931624084.2832,156
38,599618456874.387,1780931624084.2969,188
38,599618456874.387,1780931624084.31,168
38,599618456874.387,1780931624084.324,163
38,599618456874.387,1780931624084.337,247
38,599618456874.387,1780931624084.3489,307
38,599618456874.387,1780931624084.361,313
38,599618456874.387,1780931624084.374,338
38,599618456874.387,1780931624084.3862,348
38,599618456874.387,1780931624084.399,282
38,599618456874.387,1780931624084.412,186
38,599618456874.387,1780931624084.424,166
38,599618456874.387,1780931624084.436,195
38,599618456874.387,1780931624084.449,177
38,599618456874.387,1780931624084.461,166
38,599618456874.387,1780931624084.473,206
38,599618456874.387,1780931624084.485,220
38,599618456874.387,1780931624084.497,188
38,599618456874.387,1780931624084.51,177
38,599618456874.387,1780931624084.522,184
38,599618456874.387,1780931624084.534,191
